# Neutral atmosphere considered 
# Column Density in cm2
# Altitude in km
# N2
# O2
# O
# H
6.000000000e+02	2.610892250e+09	1.994474255e+07	2.791424831e+12	1.265314342e+13	
5.981871170e+02	2.778187359e+09	2.141124477e+07	2.892195321e+12	1.268144118e+13	
5.963788051e+02	2.955749213e+09	2.298161181e+07	2.996341813e+12	1.270973024e+13	
5.945750527e+02	3.144184324e+09	2.466295924e+07	3.103969710e+12	1.273801049e+13	
5.927758484e+02	3.344133564e+09	2.646287271e+07	3.215187434e+12	1.276628180e+13	
5.909811807e+02	3.556274406e+09	2.838944357e+07	3.330106676e+12	1.279454404e+13	
5.891910381e+02	3.781322543e+09	3.045129352e+07	3.448842245e+12	1.282279711e+13	
5.874054093e+02	4.020033674e+09	3.265760763e+07	3.571512156e+12	1.285104088e+13	
5.856242828e+02	4.273206158e+09	3.501817704e+07	3.698237895e+12	1.287927521e+13	
5.838476474e+02	4.541682733e+09	3.754342734e+07	3.829144255e+12	1.290750000e+13	
5.820754916e+02	4.826353285e+09	4.024446412e+07	3.964359557e+12	1.293571512e+13	
5.803078042e+02	5.128157758e+09	4.313312158e+07	4.104015909e+12	1.296392045e+13	
5.785445740e+02	5.448088076e+09	4.622200227e+07	4.248249131e+12	1.299211588e+13	
5.767857896e+02	5.787191431e+09	4.952452445e+07	4.397198844e+12	1.302030127e+13	
5.750314399e+02	6.146572271e+09	5.305495949e+07	4.551008269e+12	1.304847652e+13	
5.732815137e+02	6.527397080e+09	5.682851527e+07	4.709825000e+12	1.307664150e+13	
5.715359998e+02	6.930896521e+09	6.086137186e+07	4.873800646e+12	1.310479609e+13	
5.697948871e+02	7.358368097e+09	6.517074394e+07	5.043090924e+12	1.313294019e+13	
5.680581646e+02	7.811180618e+09	6.977495265e+07	5.217855980e+12	1.316107365e+13	
5.663258210e+02	8.290777867e+09	7.469348581e+07	5.398260311e+12	1.318919638e+13	
5.645978455e+02	8.798683234e+09	7.994707575e+07	5.584473010e+12	1.321730825e+13	
5.628742270e+02	9.336502371e+09	8.555776603e+07	5.776667721e+12	1.324540914e+13	
5.611549545e+02	9.905927546e+09	9.154899499e+07	5.975022791e+12	1.327349893e+13	
5.594400171e+02	1.050874381e+10	9.794570080e+07	6.179721725e+12	1.330157752e+13	
5.577294037e+02	1.114683192e+10	1.047743802e+08	6.390952815e+12	1.332964478e+13	
5.560231036e+02	1.182217400e+10	1.120631918e+08	6.608909356e+12	1.335770060e+13	
5.543211058e+02	1.253685979e+10	1.198420857e+08	6.833790241e+12	1.338574486e+13	
5.526233995e+02	1.329309046e+10	1.281428735e+08	7.065799506e+12	1.341377745e+13	
5.509299738e+02	1.409318571e+10	1.369993531e+08	7.305146678e+12	1.344179825e+13	
5.492408181e+02	1.493958781e+10	1.464474203e+08	7.552046797e+12	1.346980715e+13	
5.475559214e+02	1.583487019e+10	1.565252277e+08	7.806720970e+12	1.349780402e+13	
5.458752731e+02	1.678174354e+10	1.672733023e+08	8.069396287e+12	1.352578877e+13	
5.441988625e+02	1.778305903e+10	1.787346255e+08	8.340305262e+12	1.355376127e+13	
5.425266788e+02	1.884182089e+10	1.909548649e+08	8.619686956e+12	1.358172141e+13	
5.408587115e+02	1.996119361e+10	2.039825218e+08	8.907786991e+12	1.360966908e+13	
5.391949498e+02	2.114450539e+10	2.178690369e+08	9.204857033e+12	1.363760416e+13	
5.375353832e+02	2.239525999e+10	2.326690403e+08	9.511155780e+12	1.366552654e+13	
5.358800011e+02	2.371714595e+10	2.484405166e+08	9.826948820e+12	1.369343612e+13	
5.342287930e+02	2.511404296e+10	2.652449273e+08	1.015250810e+13	1.372133277e+13	
5.325817483e+02	2.659003395e+10	2.831475199e+08	1.048811316e+13	1.374921640e+13	
5.309388565e+02	2.814941492e+10	3.022175287e+08	1.083405101e+13	1.377708688e+13	
5.293001072e+02	2.979670143e+10	3.225283107e+08	1.119061543e+13	1.380494411e+13	
5.276654899e+02	3.153664452e+10	3.441576935e+08	1.155810819e+13	1.383278797e+13	
5.260349942e+02	3.337424218e+10	3.671882254e+08	1.193683915e+13	1.386061836e+13	
5.244086096e+02	3.531474444e+10	3.917073493e+08	1.232712553e+13	1.388843517e+13	
5.227863260e+02	3.736367598e+10	4.178078048e+08	1.272929310e+13	1.391623828e+13	
5.211681328e+02	3.952684353e+10	4.455878653e+08	1.314367587e+13	1.394402759e+13	
5.195540198e+02	4.181035214e+10	4.751517036e+08	1.357061659e+13	1.397180299e+13	
5.179439766e+02	4.422061601e+10	5.066096825e+08	1.401046666e+13	1.399956437e+13	
5.163379932e+02	4.676437184e+10	5.400786935e+08	1.446358621e+13	1.402731162e+13	
5.147360591e+02	4.944870190e+10	5.756825770e+08	1.493034463e+13	1.405504464e+13	
5.131381641e+02	5.228104787e+10	6.135524912e+08	1.541112057e+13	1.408276332e+13	
5.115442982e+02	5.526922830e+10	6.538273567e+08	1.590630241e+13	1.411046755e+13	
5.099544512e+02	5.842145348e+10	6.966542696e+08	1.641628828e+13	1.413815723e+13	
5.083686128e+02	6.174634371e+10	7.421889095e+08	1.694148602e+13	1.416583225e+13	
5.067867730e+02	6.525295065e+10	7.905960567e+08	1.748231347e+13	1.419349249e+13	
5.052089218e+02	6.895078649e+10	8.420502490e+08	1.803919966e+13	1.422113787e+13	
5.036350490e+02	7.284983222e+10	8.967361491e+08	1.861258406e+13	1.424876827e+13	
5.020651447e+02	7.696055993e+10	9.548490252e+08	1.920291631e+13	1.427638360e+13	
5.004991987e+02	8.129396602e+10	1.016595514e+09	1.981065736e+13	1.430398373e+13	
4.989372012e+02	8.586159294e+10	1.082194313e+09	2.043628006e+13	1.433156858e+13	
4.973791422e+02	9.067555569e+10	1.151876785e+09	2.108026906e+13	1.435913803e+13	
4.958250118e+02	9.574856393e+10	1.225887550e+09	2.174312058e+13	1.438669200e+13	
4.942748000e+02	1.010939416e+11	1.304485050e+09	2.242534193e+13	1.441423036e+13	
4.927284970e+02	1.067256736e+11	1.387942736e+09	2.312745374e+13	1.444175302e+13	
4.911860928e+02	1.126584316e+11	1.476549771e+09	2.384998951e+13	1.446925988e+13	
4.896475778e+02	1.189076008e+11	1.570611720e+09	2.459349533e+13	1.449675084e+13	
4.881129421e+02	1.254893097e+11	1.670451466e+09	2.535853028e+13	1.452422579e+13	
4.865821758e+02	1.324204711e+11	1.776410230e+09	2.614566698e+13	1.455168463e+13	
4.850552693e+02	1.397188212e+11	1.888848676e+09	2.695549220e+13	1.457912727e+13	
4.835322128e+02	1.474029492e+11	2.008147715e+09	2.778860636e+13	1.460655361e+13	
4.820129965e+02	1.554923367e+11	2.134709651e+09	2.864562407e+13	1.463396353e+13	
4.804976109e+02	1.640073985e+11	2.268959432e+09	2.952717460e+13	1.466135695e+13	
4.789860463e+02	1.729695344e+11	2.411345869e+09	3.043390233e+13	1.468873377e+13	
4.774782930e+02	1.824011714e+11	2.562342988e+09	3.136646733e+13	1.471609388e+13	
4.759743414e+02	1.923257997e+11	2.722451075e+09	3.232554468e+13	1.474343719e+13	
4.744741819e+02	2.027680179e+11	2.892198104e+09	3.331182483e+13	1.477076361e+13	
4.729778050e+02	2.137535989e+11	3.072141538e+09	3.432601505e+13	1.479807302e+13	
4.714852011e+02	2.253095341e+11	3.262869695e+09	3.536883917e+13	1.482536535e+13	
4.699963607e+02	2.374640867e+11	3.465003339e+09	3.644103769e+13	1.485264048e+13	
4.685112743e+02	2.502468607e+11	3.679197569e+09	3.754336873e+13	1.487989833e+13	
4.670299326e+02	2.636888391e+11	3.906143462e+09	3.867660790e+13	1.490713880e+13	
4.655523259e+02	2.778224476e+11	4.146569566e+09	3.984154769e+13	1.493436179e+13	
4.640784449e+02	2.926816683e+11	4.401244909e+09	4.103900048e+13	1.496156721e+13	
4.626082802e+02	3.083020410e+11	4.670980356e+09	4.226979698e+13	1.498875497e+13	
4.611418225e+02	3.247207252e+11	4.956630167e+09	4.353478512e+13	1.501592497e+13	
4.596790624e+02	3.419766289e+11	5.259095191e+09	4.483483310e+13	1.504307711e+13	
4.582199905e+02	3.601104581e+11	5.579325366e+09	4.617082942e+13	1.507021130e+13	
4.567645976e+02	3.791648107e+11	5.918322139e+09	4.754368307e+13	1.509732745e+13	
4.553128743e+02	3.991842396e+11	6.277140681e+09	4.895432319e+13	1.512442547e+13	
4.538648115e+02	4.202153413e+11	6.656892991e+09	5.040370017e+13	1.515150527e+13	
4.524204000e+02	4.423068300e+11	7.058750176e+09	5.189278480e+13	1.517856674e+13	
4.509796304e+02	4.655096328e+11	7.483945551e+09	5.342256902e+13	1.520560981e+13	
4.495424936e+02	4.898770558e+11	7.933779674e+09	5.499406945e+13	1.523263438e+13	
4.481089805e+02	5.154647978e+11	8.409621717e+09	5.660832427e+13	1.525964036e+13	
4.466790819e+02	5.423310440e+11	8.912912909e+09	5.826639392e+13	1.528662766e+13	
4.452527887e+02	5.705366681e+11	9.445171835e+09	5.996936395e+13	1.531359619e+13	
4.438300919e+02	6.001452707e+11	1.000799659e+10	6.171834290e+13	1.534054587e+13	
4.424109822e+02	6.312232636e+11	1.060306878e+10	6.351446269e+13	1.536747660e+13	
4.409954508e+02	6.638400634e+11	1.123215883e+10	6.535888066e+13	1.539438829e+13	
4.395834886e+02	6.980682298e+11	1.189713034e+10	6.725278042e+13	1.542128085e+13	
4.381750865e+02	7.339835386e+11	1.259994466e+10	6.919737149e+13	1.544815421e+13	
4.367702357e+02	7.716650979e+11	1.334266444e+10	7.119388855e+13	1.547500827e+13	
4.353689271e+02	8.111955997e+11	1.412746035e+10	7.324359413e+13	1.550184295e+13	
4.339711518e+02	8.526613788e+11	1.495661532e+10	7.534777744e+13	1.552865815e+13	
4.325769009e+02	8.961525252e+11	1.583252961e+10	7.750775438e+13	1.555545380e+13	
4.311861656e+02	9.417631795e+11	1.675772981e+10	7.972487232e+13	1.558222980e+13	
4.297989369e+02	9.895915519e+11	1.773487088e+10	8.200050537e+13	1.560898608e+13	
4.284152060e+02	1.039740205e+12	1.876674419e+10	8.433605691e+13	1.563572255e+13	
4.270349641e+02	1.092316224e+12	1.985628479e+10	8.673296107e+13	1.566243912e+13	
4.256582024e+02	1.147431255e+12	2.100657700e+10	8.919268170e+13	1.568913572e+13	
4.242849122e+02	1.205201818e+12	2.222086231e+10	9.171671352e+13	1.571581225e+13	
4.229150846e+02	1.265749557e+12	2.350254777e+10	9.430658338e+13	1.574246864e+13	
4.215487110e+02	1.329201361e+12	2.485521357e+10	9.696385081e+13	1.576910480e+13	
4.201857825e+02	1.395689543e+12	2.628261915e+10	9.969010615e+13	1.579572066e+13	
4.188262907e+02	1.465352153e+12	2.778871495e+10	1.024869744e+14	1.582231612e+13	
4.174702267e+02	1.538333229e+12	2.937765094e+10	1.053561149e+14	1.584889111e+13	
4.161175820e+02	1.614782846e+12	3.105378358e+10	1.082992199e+14	1.587544555e+13	
4.147683478e+02	1.694857564e+12	3.282168895e+10	1.113180178e+14	1.590197936e+13	
4.134225157e+02	1.778720670e+12	3.468617303e+10	1.144142739e+14	1.592849247e+13	
4.120800770e+02	1.866542261e+12	3.665227830e+10	1.175897873e+14	1.595498478e+13	
4.107410232e+02	1.958499701e+12	3.872529907e+10	1.208463952e+14	1.598145622e+13	
4.094053458e+02	2.054777882e+12	4.091079373e+10	1.241859735e+14	1.600790672e+13	
4.080730362e+02	2.155569499e+12	4.321459399e+10	1.276104350e+14	1.603433619e+13	
4.067440859e+02	2.261075264e+12	4.564281897e+10	1.311217318e+14	1.606074457e+13	
4.054184865e+02	2.371504442e+12	4.820188939e+10	1.347218555e+14	1.608713176e+13	
4.040962295e+02	2.487075029e+12	5.089854212e+10	1.384128388e+14	1.611349771e+13	
4.027773065e+02	2.608013953e+12	5.373984214e+10	1.421967543e+14	1.613984232e+13	
4.014617091e+02	2.734557801e+12	5.673320215e+10	1.460757183e+14	1.616616554e+13	
4.001494289e+02	2.866952897e+12	5.988639335e+10	1.500518875e+14	1.619246727e+13	
3.988404576e+02	3.005455651e+12	6.320756214e+10	1.541309081e+14	1.621874745e+13	
3.975347867e+02	3.150333184e+12	6.670525522e+10	1.583151914e+14	1.624500600e+13	
3.962324080e+02	3.301863708e+12	7.038843099e+10	1.626037702e+14	1.627124285e+13	
3.949333132e+02	3.460336785e+12	7.426647679e+10	1.669989945e+14	1.629745793e+13	
3.936374940e+02	3.626053930e+12	7.834923847e+10	1.715032647e+14	1.632365116e+13	
3.923449421e+02	3.799328703e+12	8.264702728e+10	1.761190254e+14	1.634982248e+13	
3.910556493e+02	3.980487500e+12	8.717064327e+10	1.808487669e+14	1.637597181e+13	
3.897696073e+02	4.169870387e+12	9.193141774e+10	1.856950381e+14	1.640209909e+13	
3.884868081e+02	4.367830916e+12	9.694121154e+10	1.906604320e+14	1.642820423e+13	
3.872072434e+02	4.574736821e+12	1.022124412e+11	1.957475881e+14	1.645428718e+13	
3.859309050e+02	4.790970960e+12	1.077581273e+11	2.009592068e+14	1.648034786e+13	
3.846577848e+02	5.016931633e+12	1.135919026e+11	2.062980390e+14	1.650638622e+13	
3.833878747e+02	5.253032791e+12	1.197280302e+11	2.117668841e+14	1.653240216e+13	
3.821211667e+02	5.499705108e+12	1.261814501e+11	2.173685989e+14	1.655839564e+13	
3.808576525e+02	5.757396669e+12	1.329678085e+11	2.231060968e+14	1.658436658e+13	
3.795973243e+02	6.026573160e+12	1.401034829e+11	2.289823486e+14	1.661031491e+13	
3.783401738e+02	6.307718807e+12	1.476056088e+11	2.350003794e+14	1.663624058e+13	
3.770861932e+02	6.601337217e+12	1.554921251e+11	2.411632744e+14	1.666214352e+13	
3.758353745e+02	6.907951620e+12	1.637817944e+11	2.474741751e+14	1.668802365e+13	
3.745877096e+02	7.228105968e+12	1.724942509e+11	2.539362842e+14	1.671388093e+13	
3.733431907e+02	7.562365639e+12	1.816500404e+11	2.605528668e+14	1.673971527e+13	
3.721018097e+02	7.911318190e+12	1.912706557e+11	2.673272502e+14	1.676552663e+13	
3.708635588e+02	8.275574043e+12	2.013785738e+11	2.742628240e+14	1.679131494e+13	
3.696284300e+02	8.655767433e+12	2.119972954e+11	2.813630399e+14	1.681708013e+13	
3.683964156e+02	9.052557315e+12	2.231514016e+11	2.886314159e+14	1.684282215e+13	
3.671675076e+02	9.466628318e+12	2.348665986e+11	2.960715382e+14	1.686854093e+13	
3.659416983e+02	9.898692069e+12	2.471697670e+11	3.036870620e+14	1.689423642e+13	
3.647189797e+02	1.034948686e+13	2.600889921e+11	3.114817061e+14	1.691990856e+13	
3.634993442e+02	1.081977951e+13	2.736536384e+11	3.194592609e+14	1.694555728e+13	
3.622827839e+02	1.131036656e+13	2.878943886e+11	3.276235866e+14	1.697118253e+13	
3.610692911e+02	1.182207492e+13	3.028433098e+11	3.359786151e+14	1.699678426e+13	
3.598588580e+02	1.235576348e+13	3.185339199e+11	3.445283531e+14	1.702236240e+13	
3.586514770e+02	1.291232336e+13	3.350012302e+11	3.532768795e+14	1.704791690e+13	
3.574471403e+02	1.349267963e+13	3.522818197e+11	3.622283498e+14	1.707344770e+13	
3.562458403e+02	1.409779255e+13	3.704138845e+11	3.713869924e+14	1.709895475e+13	
3.550475693e+02	1.472865875e+13	3.894373251e+11	3.807571151e+14	1.712443800e+13	
3.538523197e+02	1.538631262e+13	4.093938274e+11	3.903431080e+14	1.714989738e+13	
3.526600838e+02	1.607182739e+13	4.303269085e+11	4.001494374e+14	1.717533286e+13	
3.514708541e+02	1.678631637e+13	4.522820004e+11	4.101806506e+14	1.720074437e+13	
3.502846229e+02	1.753093433e+13	4.753065358e+11	4.204413773e+14	1.722613186e+13	
3.491013828e+02	1.830688003e+13	4.994500442e+11	4.309363340e+14	1.725149529e+13	
3.479211261e+02	1.911539630e+13	5.247642317e+11	4.416703242e+14	1.727683460e+13	
3.467438454e+02	1.995777147e+13	5.513030271e+11	4.526482309e+14	1.730214975e+13	
3.455695331e+02	2.083534269e+13	5.791227188e+11	4.638750274e+14	1.732744068e+13	
3.443981818e+02	2.174949568e+13	6.082820346e+11	4.753557743e+14	1.735270735e+13	
3.432297840e+02	2.270166785e+13	6.388422728e+11	4.870956266e+14	1.737794971e+13	
3.420643322e+02	2.369335018e+13	6.708674071e+11	4.990998368e+14	1.740316771e+13	
3.409018191e+02	2.472608687e+13	7.044241194e+11	5.113737408e+14	1.742836131e+13	
3.397422371e+02	2.580147899e+13	7.395819699e+11	5.239227719e+14	1.745353047e+13	
3.385855790e+02	2.692118738e+13	7.764135322e+11	5.367524636e+14	1.747867513e+13	
3.374318373e+02	2.808693195e+13	8.149944736e+11	5.498684454e+14	1.750379525e+13	
3.362810047e+02	2.930049441e+13	8.554036726e+11	5.632764433e+14	1.752889081e+13	
3.351330739e+02	3.056372249e+13	8.977233838e+11	5.769822865e+14	1.755396173e+13	
3.339880375e+02	3.187853062e+13	9.420393710e+11	5.909919083e+14	1.757900800e+13	
3.328458883e+02	3.324690171e+13	9.884410382e+11	6.053113459e+14	1.760402957e+13	
3.317066189e+02	3.467089006e+13	1.037021542e+12	6.199467394e+14	1.762902640e+13	
3.305702221e+02	3.615262333e+13	1.087877965e+12	6.349043356e+14	1.765399846e+13	
3.294366907e+02	3.769430552e+13	1.141111504e+12	6.501904929e+14	1.767894569e+13	
3.283060174e+02	3.929821963e+13	1.196827603e+12	6.658116806e+14	1.770386808e+13	
3.271781950e+02	4.096672916e+13	1.255136081e+12	6.817744749e+14	1.772876557e+13	
3.260532164e+02	4.270228261e+13	1.316151363e+12	6.980855705e+14	1.775363814e+13	
3.249310744e+02	4.450741536e+13	1.379992725e+12	7.147517868e+14	1.777848575e+13	
3.238117617e+02	4.638474991e+13	1.446784282e+12	7.317800422e+14	1.780330837e+13	
3.226952714e+02	4.833700318e+13	1.516655323e+12	7.491773815e+14	1.782810597e+13	
3.215815962e+02	5.036698893e+13	1.589740581e+12	7.669509845e+14	1.785287851e+13	
3.204707291e+02	5.247761736e+13	1.666180260e+12	7.851081413e+14	1.787762596e+13	
3.193626629e+02	5.467190056e+13	1.746120358e+12	8.036562687e+14	1.790235917e+13	
3.182573907e+02	5.695295703e+13	1.829712866e+12	8.226029085e+14	1.792707861e+13	
3.171549054e+02	5.932401391e+13	1.917115973e+12	8.419557314e+14	1.795177393e+13	
3.160551999e+02	6.178840879e+13	2.008494402e+12	8.617225441e+14	1.797644515e+13	
3.149582673e+02	6.434959566e+13	2.104019536e+12	8.819112785e+14	1.800109229e+13	
3.138641005e+02	6.701114903e+13	2.203869733e+12	9.025300042e+14	1.802571539e+13	
3.127726926e+02	6.977676639e+13	2.308230641e+12	9.235869350e+14	1.805031446e+13	
3.116840366e+02	7.265027222e+13	2.417295415e+12	9.450904198e+14	1.807488955e+13	
3.105981256e+02	7.563562366e+13	2.531265100e+12	9.670489571e+14	1.809944069e+13	
3.095149527e+02	7.873691090e+13	2.650348706e+12	9.894711758e+14	1.812396792e+13	
3.084345109e+02	8.195836216e+13	2.774763535e+12	1.012365841e+15	1.814847127e+13	
3.073567934e+02	8.530435602e+13	2.904735862e+12	1.035741889e+15	1.817295080e+13	
3.062817933e+02	8.877941458e+13	3.040500871e+12	1.059608390e+15	1.819740656e+13	
3.052095037e+02	9.238821483e+13	3.182303129e+12	1.083974569e+15	1.822183860e+13	
3.041399179e+02	9.613559609e+13	3.330397189e+12	1.108849826e+15	1.824624699e+13	
3.030730290e+02	1.000265558e+14	3.485047461e+12	1.134243979e+15	1.827063177e+13	
3.020088301e+02	1.040662642e+14	3.646528920e+12	1.160166745e+15	1.829499303e+13	
3.009473146e+02	1.082600598e+14	3.815127328e+12	1.186627720e+15	1.831933082e+13	
2.998884756e+02	1.126134642e+14	3.991139832e+12	1.213651164e+15	1.834364561e+13	
2.988323065e+02	1.171321888e+14	4.174875530e+12	1.241247841e+15	1.836793748e+13	
2.977788003e+02	1.218221253e+14	4.366655221e+12	1.269414510e+15	1.839220617e+13	
2.967279506e+02	1.266893688e+14	4.566812570e+12	1.298161764e+15	1.841645176e+13	
2.956797505e+02	1.317402172e+14	4.775694301e+12	1.327500372e+15	1.844067436e+13	
2.946341934e+02	1.369811743e+14	4.993660482e+12	1.357441271e+15	1.846487406e+13	
2.935912726e+02	1.424189619e+14	5.221085386e+12	1.387995601e+15	1.848905097e+13	
2.925509814e+02	1.480605200e+14	5.458357655e+12	1.419174657e+15	1.851320521e+13	
2.915133133e+02	1.539130250e+14	5.705881359e+12	1.450989960e+15	1.853733689e+13	
2.904782616e+02	1.599838862e+14	5.964076076e+12	1.483453215e+15	1.856144613e+13	
2.894458198e+02	1.662807526e+14	6.233377309e+12	1.516576298e+15	1.858553307e+13	
2.884159812e+02	1.728115305e+14	6.514237755e+12	1.550371307e+15	1.860959785e+13	
2.873887392e+02	1.795843833e+14	6.807127560e+12	1.584850548e+15	1.863364061e+13	
2.863640874e+02	1.866077399e+14	7.112534677e+12	1.620026515e+15	1.865766149e+13	
2.853420192e+02	1.938903006e+14	7.430965727e+12	1.655911916e+15	1.868166067e+13	
2.843225281e+02	2.014410486e+14	7.762946573e+12	1.692519651e+15	1.870563829e+13	
2.833056075e+02	2.092692675e+14	8.109023674e+12	1.729862869e+15	1.872959454e+13	
2.822912511e+02	2.173845373e+14	8.469764083e+12	1.767954933e+15	1.875352959e+13	
2.812794523e+02	2.257967426e+14	8.845756065e+12	1.806809404e+15	1.877744364e+13	
2.802702047e+02	2.345160944e+14	9.237610752e+12	1.846440101e+15	1.880133687e+13	
2.792635019e+02	2.435531366e+14	9.645962394e+12	1.886861067e+15	1.882520949e+13	
2.782593374e+02	2.529187410e+14	1.007146877e+13	1.928086561e+15	1.884906172e+13	
2.772577048e+02	2.626241358e+14	1.051481282e+13	1.970131098e+15	1.887289377e+13	
2.762585978e+02	2.726809087e+14	1.097670318e+13	2.013009434e+15	1.889670588e+13	
2.752620100e+02	2.831010115e+14	1.145787476e+13	2.056736550e+15	1.892049830e+13	
2.742679350e+02	2.938967889e+14	1.195909059e+13	2.101327711e+15	1.894427125e+13	
2.732763666e+02	3.050809760e+14	1.248114219e+13	2.146798427e+15	1.896802503e+13	
2.722872983e+02	3.166667118e+14	1.302485060e+13	2.193164467e+15	1.899175988e+13	
2.713007239e+02	3.286675576e+14	1.359106771e+13	2.240441874e+15	1.901547610e+13	
2.703166371e+02	3.410975002e+14	1.418067680e+13	2.288646941e+15	1.903917397e+13	
2.693350316e+02	3.539709752e+14	1.479459442e+13	2.337796255e+15	1.906285381e+13	
