# Neutral atmosphere considered 
# Density in cm3
# Altitude in km
# N2
# O2
# O
# H
6.000000000e+02	8.941466064e+02	7.802182198e+00	5.459886250e+05	1.559193438e+05	
5.981871170e+02	9.514783936e+02	8.376492500e+00	5.657266875e+05	1.562657969e+05	
5.963788051e+02	1.012362610e+03	8.991827965e+00	5.861375625e+05	1.566123594e+05	
5.945750527e+02	1.077005249e+03	9.650946617e+00	6.072401875e+05	1.569589375e+05	
5.927758484e+02	1.145635498e+03	1.035693645e+01	6.290588125e+05	1.573056094e+05	
5.909811807e+02	1.218488403e+03	1.111300850e+01	6.516155000e+05	1.576523906e+05	
5.891910381e+02	1.295815674e+03	1.192258644e+01	6.749332500e+05	1.579992031e+05	
5.874054093e+02	1.377876953e+03	1.278931427e+01	6.990355000e+05	1.583460781e+05	
5.856242828e+02	1.464958618e+03	1.371716309e+01	7.239486875e+05	1.586930312e+05	
5.838476474e+02	1.557344849e+03	1.471016884e+01	7.496947500e+05	1.590400000e+05	
5.820754916e+02	1.655358643e+03	1.577289391e+01	7.763031875e+05	1.593870625e+05	
5.803078042e+02	1.759322876e+03	1.691000557e+01	8.037991875e+05	1.597342031e+05	
5.785445740e+02	1.869588501e+03	1.812660599e+01	8.322120000e+05	1.600813750e+05	
5.767857896e+02	1.986522095e+03	1.942799377e+01	8.615682500e+05	1.604285938e+05	
5.750314399e+02	2.110504150e+03	2.081979752e+01	8.918954375e+05	1.607758594e+05	
5.732815137e+02	2.241962891e+03	2.230837250e+01	9.232294375e+05	1.611232031e+05	
5.715359998e+02	2.381311035e+03	2.389987183e+01	9.555943125e+05	1.614705625e+05	
5.697948871e+02	2.529015381e+03	2.560148621e+01	9.890274375e+05	1.618180000e+05	
5.680581646e+02	2.685548340e+03	2.742032433e+01	1.023557188e+06	1.621654375e+05	
5.663258210e+02	2.851427979e+03	2.936440849e+01	1.059220625e+06	1.625129531e+05	
5.645978455e+02	3.027189697e+03	3.144189262e+01	1.096049500e+06	1.628605000e+05	
5.628742270e+02	3.213392334e+03	3.366172791e+01	1.134081000e+06	1.632080625e+05	
5.611549545e+02	3.410632324e+03	3.603320312e+01	1.173349250e+06	1.635556719e+05	
5.594400171e+02	3.619551270e+03	3.856666946e+01	1.213897375e+06	1.639033438e+05	
5.577294037e+02	3.840791748e+03	4.127228928e+01	1.255755875e+06	1.642510156e+05	
5.560231036e+02	4.075073242e+03	4.416181946e+01	1.298971000e+06	1.645987500e+05	
5.543211058e+02	4.323125488e+03	4.724715805e+01	1.343581000e+06	1.649465000e+05	
5.526233995e+02	4.585726074e+03	5.054110718e+01	1.389627500e+06	1.652942344e+05	
5.509299738e+02	4.863702637e+03	5.405728149e+01	1.437153500e+06	1.656420469e+05	
5.492408181e+02	5.157896484e+03	5.781004715e+01	1.486201750e+06	1.659898438e+05	
5.475559214e+02	5.469252441e+03	6.181518173e+01	1.536822500e+06	1.663376719e+05	
5.458752731e+02	5.798701172e+03	6.608872986e+01	1.589058375e+06	1.666855312e+05	
5.441988625e+02	6.147244141e+03	7.064773560e+01	1.642953750e+06	1.670334062e+05	
5.425266788e+02	6.515980469e+03	7.551132202e+01	1.698565500e+06	1.673812969e+05	
5.408587115e+02	6.906017578e+03	8.069865417e+01	1.755939000e+06	1.677292031e+05	
5.391949498e+02	7.318517090e+03	8.623048401e+01	1.815125875e+06	1.680771094e+05	
5.375353832e+02	7.754750977e+03	9.212937927e+01	1.876184250e+06	1.684250312e+05	
5.358800011e+02	8.216014648e+03	9.841848755e+01	1.939165000e+06	1.687729688e+05	
5.342287930e+02	8.703681641e+03	1.051223068e+02	2.004120875e+06	1.691208906e+05	
5.325817483e+02	9.219219727e+03	1.122681808e+02	2.071118250e+06	1.694688750e+05	
5.309388565e+02	9.764148438e+03	1.198835526e+02	2.140210250e+06	1.698168125e+05	
5.293001072e+02	1.034004297e+04	1.279979477e+02	2.211455000e+06	1.701647344e+05	
5.276654899e+02	1.094864746e+04	1.366436005e+02	2.284921750e+06	1.705127188e+05	
5.260349942e+02	1.159170801e+04	1.458536987e+02	2.360671000e+06	1.708606562e+05	
5.244086096e+02	1.227106543e+04	1.556632385e+02	2.438764500e+06	1.712085781e+05	
5.227863260e+02	1.298877734e+04	1.661110077e+02	2.519278000e+06	1.715565156e+05	
5.211681328e+02	1.374681348e+04	1.772356415e+02	2.602270750e+06	1.719044219e+05	
5.195540198e+02	1.454747070e+04	1.890811920e+02	2.687826250e+06	1.722523750e+05	
5.179439766e+02	1.539289355e+04	2.016906891e+02	2.776003500e+06	1.726002812e+05	
5.163379932e+02	1.628558691e+04	2.151132355e+02	2.866888250e+06	1.729481719e+05	
5.147360591e+02	1.722802734e+04	2.293979797e+02	2.960547750e+06	1.732960469e+05	
5.131381641e+02	1.822293945e+04	2.445995789e+02	3.057068750e+06	1.736439062e+05	
5.115442982e+02	1.927306836e+04	2.607737427e+02	3.156526000e+06	1.739917344e+05	
5.099544512e+02	2.038137695e+04	2.779813843e+02	3.259007750e+06	1.743395781e+05	
5.083686128e+02	2.155089453e+04	2.962844543e+02	3.364589500e+06	1.746873750e+05	
5.067867730e+02	2.278491016e+04	3.157515869e+02	3.473365500e+06	1.750351406e+05	
5.052089218e+02	2.408688281e+04	3.364542847e+02	3.585426500e+06	1.753829062e+05	
5.036350490e+02	2.546026953e+04	3.584671936e+02	3.700860000e+06	1.757306406e+05	
5.020651447e+02	2.690887891e+04	3.818693237e+02	3.819754250e+06	1.760783438e+05	
5.004991987e+02	2.843666016e+04	4.067465210e+02	3.942213000e+06	1.764259844e+05	
4.989372012e+02	3.004777344e+04	4.331882324e+02	4.068333750e+06	1.767736250e+05	
4.973791422e+02	3.174658398e+04	4.612897339e+02	4.198221000e+06	1.771212500e+05	
4.958250118e+02	3.353761719e+04	4.911498108e+02	4.331970500e+06	1.774688281e+05	
4.942748000e+02	3.542557422e+04	5.228729248e+02	4.469683000e+06	1.778163438e+05	
4.927284970e+02	3.741567188e+04	5.565750732e+02	4.611484000e+06	1.781638594e+05	
4.911860928e+02	3.951303906e+04	5.923720093e+02	4.757471500e+06	1.785112969e+05	
4.896475778e+02	4.172333594e+04	6.303908081e+02	4.907768000e+06	1.788587031e+05	
4.881129421e+02	4.405218359e+04	6.707615356e+02	5.062480000e+06	1.792060625e+05	
4.865821758e+02	4.650587891e+04	7.136270142e+02	5.221738000e+06	1.795534062e+05	
4.850552693e+02	4.909067578e+04	7.591343384e+02	5.385659500e+06	1.799006875e+05	
4.835322128e+02	5.181336719e+04	8.074396973e+02	5.554370000e+06	1.802479062e+05	
4.820129965e+02	5.468085547e+04	8.587080688e+02	5.727996500e+06	1.805950938e+05	
4.804976109e+02	5.770059766e+04	9.131152954e+02	5.906673000e+06	1.809422031e+05	
4.789860463e+02	6.088031641e+04	9.708456421e+02	6.090534500e+06	1.812892656e+05	
4.774782930e+02	6.422817188e+04	1.032096313e+03	6.279725000e+06	1.816362969e+05	
4.759743414e+02	6.775251562e+04	1.097069092e+03	6.474373500e+06	1.819832812e+05	
4.744741819e+02	7.146225781e+04	1.165984009e+03	6.674630500e+06	1.823301875e+05	
4.729778050e+02	7.536680469e+04	1.239070923e+03	6.880647000e+06	1.826770156e+05	
4.714852011e+02	7.947582031e+04	1.316572388e+03	7.092573000e+06	1.830237969e+05	
4.699963607e+02	8.379960938e+04	1.398744141e+03	7.310563000e+06	1.833705469e+05	
4.685112743e+02	8.834895312e+04	1.485858887e+03	7.534783000e+06	1.837172031e+05	
4.670299326e+02	9.313486719e+04	1.578199585e+03	7.765388500e+06	1.840638125e+05	
4.655523259e+02	9.816920312e+04	1.676064331e+03	8.002539500e+06	1.844103281e+05	
4.640784449e+02	1.034647266e+05	1.779782471e+03	8.246436000e+06	1.847567969e+05	
4.626082802e+02	1.090335469e+05	1.889676514e+03	8.497219000e+06	1.851032188e+05	
4.611418225e+02	1.148895000e+05	2.006103149e+03	8.755077000e+06	1.854495156e+05	
4.596790624e+02	1.210467031e+05	2.129435059e+03	9.020195000e+06	1.857957656e+05	
4.582199905e+02	1.275199297e+05	2.260070068e+03	9.292766000e+06	1.861419531e+05	
4.567645976e+02	1.343248594e+05	2.398421387e+03	9.572980000e+06	1.864880312e+05	
4.553128743e+02	1.414774219e+05	2.544925049e+03	9.861029000e+06	1.868340781e+05	
4.538648115e+02	1.489948125e+05	2.700045166e+03	1.015712200e+07	1.871800156e+05	
4.524204000e+02	1.568942969e+05	2.864257812e+03	1.046144200e+07	1.875258594e+05	
4.509796304e+02	1.651947188e+05	3.038079102e+03	1.077421200e+07	1.878716875e+05	
4.495424936e+02	1.739159844e+05	3.222064453e+03	1.109566800e+07	1.882173750e+05	
4.481089805e+02	1.830775000e+05	3.416759277e+03	1.142599300e+07	1.885630000e+05	
4.466790819e+02	1.927008438e+05	3.622777588e+03	1.176543700e+07	1.889085312e+05	
4.452527887e+02	2.028086406e+05	3.840750000e+03	1.211422600e+07	1.892540156e+05	
4.438300919e+02	2.134234219e+05	4.071332520e+03	1.247258500e+07	1.895993594e+05	
4.424109822e+02	2.245694219e+05	4.315224609e+03	1.284074900e+07	1.899446406e+05	
4.409954508e+02	2.362723438e+05	4.573169434e+03	1.321897600e+07	1.902898125e+05	
4.395834886e+02	2.485588438e+05	4.845942383e+03	1.360751700e+07	1.906349219e+05	
4.381750865e+02	2.614561562e+05	5.134365723e+03	1.400663000e+07	1.909799375e+05	
4.367702357e+02	2.749930938e+05	5.439280273e+03	1.441655900e+07	1.913248438e+05	
4.353689271e+02	2.892010000e+05	5.761620117e+03	1.483760500e+07	1.916696719e+05	
4.339711518e+02	3.041100938e+05	6.102303711e+03	1.527000000e+07	1.920143750e+05	
4.325769009e+02	3.197539062e+05	6.462354492e+03	1.571405000e+07	1.923590000e+05	
4.311861656e+02	3.361675000e+05	6.842839844e+03	1.617006000e+07	1.927035469e+05	
4.297989369e+02	3.533853125e+05	7.244831055e+03	1.663827300e+07	1.930479844e+05	
4.284152060e+02	3.714471562e+05	7.669533203e+03	1.711903600e+07	1.933923125e+05	
4.270349641e+02	3.903905938e+05	8.118143066e+03	1.761261800e+07	1.937365625e+05	
4.256582024e+02	4.102567812e+05	8.591970703e+03	1.811935600e+07	1.940806719e+05	
4.242849122e+02	4.310885000e+05	9.092350586e+03	1.863954200e+07	1.944247031e+05	
4.229150846e+02	4.529313438e+05	9.620741211e+03	1.917353600e+07	1.947686406e+05	
4.215487110e+02	4.758307812e+05	1.017861328e+04	1.972164400e+07	1.951124531e+05	
4.201857825e+02	4.998357500e+05	1.076754297e+04	2.028420400e+07	1.954561719e+05	
4.188262907e+02	5.249973125e+05	1.138920312e+04	2.086158400e+07	1.957997656e+05	
4.174702267e+02	5.513689375e+05	1.204532520e+04	2.145412600e+07	1.961432812e+05	
4.161175820e+02	5.790035000e+05	1.273771777e+04	2.206217800e+07	1.964866562e+05	
4.147683478e+02	6.079620000e+05	1.346833984e+04	2.268614000e+07	1.968299688e+05	
4.134225157e+02	6.383020000e+05	1.423918848e+04	2.332637600e+07	1.971731250e+05	
4.120800770e+02	6.700868750e+05	1.505235840e+04	2.398324800e+07	1.975162188e+05	
4.107410232e+02	7.033820625e+05	1.591011328e+04	2.465718600e+07	1.978591406e+05	
4.094053458e+02	7.382561250e+05	1.681477344e+04	2.534857400e+07	1.982020000e+05	
4.080730362e+02	7.747798125e+05	1.776878320e+04	2.605781800e+07	1.985447344e+05	
4.067440859e+02	8.130262500e+05	1.877472070e+04	2.678534400e+07	1.988873594e+05	
4.054184865e+02	8.530755625e+05	1.983529102e+04	2.753157400e+07	1.992298594e+05	
4.040962295e+02	8.950050000e+05	2.095334180e+04	2.829695800e+07	1.995722656e+05	
4.027773065e+02	9.388992500e+05	2.213181250e+04	2.908191200e+07	1.999145156e+05	
4.014617091e+02	9.848480625e+05	2.337390234e+04	2.988694800e+07	2.002567031e+05	
4.001494289e+02	1.032938938e+06	2.468277344e+04	3.071244600e+07	2.005987344e+05	
3.988404576e+02	1.083268625e+06	2.606193945e+04	3.161161600e+07	2.009406719e+05	
3.975347867e+02	1.135935875e+06	2.751500977e+04	3.248238200e+07	2.012824688e+05	
3.962324080e+02	1.191045125e+06	2.904574023e+04	3.337525000e+07	2.016241719e+05	
3.949333132e+02	1.248701000e+06	3.065807422e+04	3.429070000e+07	2.019657500e+05	
3.936374940e+02	1.309019125e+06	3.235629688e+04	3.522934000e+07	2.023072344e+05	
3.923449421e+02	1.372107625e+06	3.414453516e+04	3.619155600e+07	2.026485625e+05	
3.910556493e+02	1.438096500e+06	3.602751562e+04	3.717799200e+07	2.029897969e+05	
3.897696073e+02	1.507109000e+06	3.801010938e+04	3.818924400e+07	2.033309219e+05	
3.884868081e+02	1.579274625e+06	4.009710547e+04	3.922573600e+07	2.036719062e+05	
3.872072434e+02	1.654729875e+06	4.229387500e+04	4.028811600e+07	2.040127812e+05	
3.859309050e+02	1.733621375e+06	4.460605859e+04	4.137704000e+07	2.043535781e+05	
3.846577848e+02	1.816093375e+06	4.703926172e+04	4.249300400e+07	2.046942344e+05	
3.833878747e+02	1.902298375e+06	4.959951172e+04	4.363664000e+07	2.050347344e+05	
3.821211667e+02	1.992400375e+06	5.229326172e+04	4.480859600e+07	2.053751406e+05	
3.808576525e+02	2.086565625e+06	5.512711719e+04	4.600950800e+07	2.057154531e+05	
3.795973243e+02	2.184964250e+06	5.810805469e+04	4.724003600e+07	2.060556250e+05	
3.783401738e+02	2.287780500e+06	6.124323047e+04	4.850078800e+07	2.063957188e+05	
3.770861932e+02	2.395201250e+06	6.454047656e+04	4.979252000e+07	2.067356562e+05	
3.758353745e+02	2.507418000e+06	6.800741406e+04	5.111579600e+07	2.070754688e+05	
3.745877096e+02	2.624638750e+06	7.165278906e+04	5.247146000e+07	2.074152031e+05	
3.733431907e+02	2.747070000e+06	7.548501562e+04	5.386010800e+07	2.077547969e+05	
3.721018097e+02	2.874935750e+06	7.951357812e+04	5.528258800e+07	2.080942812e+05	
3.708635588e+02	3.008457500e+06	8.374764844e+04	5.673952000e+07	2.084336719e+05	
3.696284300e+02	3.147878750e+06	8.819753125e+04	5.823174800e+07	2.087729375e+05	
3.683964156e+02	3.293440000e+06	9.287350000e+04	5.975998800e+07	2.091120781e+05	
3.671675076e+02	3.445404750e+06	9.778678125e+04	6.132511200e+07	2.094511250e+05	
3.659416983e+02	3.604039750e+06	1.029486484e+05	6.292787600e+07	2.097900938e+05	
3.647189797e+02	3.769608000e+06	1.083710391e+05	6.456907200e+07	2.101289062e+05	
3.634993442e+02	3.942411500e+06	1.140666641e+05	6.624959600e+07	2.104676094e+05	
3.622827839e+02	4.122738250e+06	1.200483281e+05	6.797023200e+07	2.108062344e+05	
3.610692911e+02	4.310906500e+06	1.263300781e+05	6.973192000e+07	2.111447500e+05	
3.598588580e+02	4.507236000e+06	1.329260625e+05	7.153550400e+07	2.114831562e+05	
3.586514770e+02	4.712055500e+06	1.398512969e+05	7.338190400e+07	2.118214844e+05	
3.574471403e+02	4.925719000e+06	1.471214375e+05	7.527204800e+07	2.121596875e+05	
3.562458403e+02	5.148582500e+06	1.547526094e+05	7.720680800e+07	2.124977656e+05	
3.550475693e+02	5.381025500e+06	1.627622188e+05	7.918724000e+07	2.128358125e+05	
3.538523197e+02	5.623435000e+06	1.711680625e+05	8.121428000e+07	2.131737344e+05	
3.526600838e+02	5.876215000e+06	1.799886406e+05	8.328889600e+07	2.135115625e+05	
3.514708541e+02	6.139781000e+06	1.892435000e+05	8.541212000e+07	2.138492969e+05	
3.502846229e+02	6.414567500e+06	1.989529375e+05	8.758496800e+07	2.141869062e+05	
3.491013828e+02	6.701040500e+06	2.091385000e+05	8.980855200e+07	2.145245000e+05	
3.479211261e+02	6.999645000e+06	2.198222188e+05	9.208392000e+07	2.148619688e+05	
3.467438454e+02	7.310878500e+06	2.310268438e+05	9.441207200e+07	2.151993594e+05	
3.455695331e+02	7.635252000e+06	2.427771406e+05	9.679424800e+07	2.155366719e+05	
3.443981818e+02	7.973267500e+06	2.550976719e+05	9.923143200e+07	2.158739219e+05	
3.432297840e+02	8.325499000e+06	2.680159062e+05	1.017249920e+08	2.162110781e+05	
3.420643322e+02	8.692491000e+06	2.815586875e+05	1.042759840e+08	2.165481875e+05	
3.409018191e+02	9.074821000e+06	2.957545625e+05	1.068855680e+08	2.168852188e+05	
3.397422371e+02	9.473107000e+06	3.106338125e+05	1.095550400e+08	2.172221719e+05	
3.385855790e+02	9.887988000e+06	3.262278750e+05	1.122856480e+08	2.175590469e+05	
3.374318373e+02	1.032008100e+07	3.425690000e+05	1.150786240e+08	2.178959219e+05	
3.362810047e+02	1.077008400e+07	3.596912500e+05	1.179352480e+08	2.182326875e+05	
3.351330739e+02	1.123870000e+07	3.776303750e+05	1.208568960e+08	2.185694062e+05	
3.339880375e+02	1.172665100e+07	3.964234062e+05	1.238448800e+08	2.189061094e+05	
3.328458883e+02	1.223468500e+07	4.161090625e+05	1.269005920e+08	2.192427344e+05	
3.317066189e+02	1.276358800e+07	4.367270625e+05	1.300253600e+08	2.195793906e+05	
3.305702221e+02	1.331415700e+07	4.583198750e+05	1.332206560e+08	2.199159531e+05	
3.294366907e+02	1.388724500e+07	4.809313438e+05	1.364879200e+08	2.202524688e+05	
3.283060174e+02	1.448371100e+07	5.046070938e+05	1.398286400e+08	2.205890000e+05	
3.271781950e+02	1.510445100e+07	5.293940000e+05	1.432442080e+08	2.209254688e+05	
3.260532164e+02	1.575041900e+07	5.553427500e+05	1.467363360e+08	2.212619375e+05	
3.249310744e+02	1.642256200e+07	5.825053750e+05	1.503065600e+08	2.215984219e+05	
3.238117617e+02	1.712185600e+07	6.109334375e+05	1.539561600e+08	2.219348438e+05	
3.226952714e+02	1.784939600e+07	6.406858125e+05	1.576871840e+08	2.222713125e+05	
3.215815962e+02	1.860622000e+07	6.718200000e+05	1.615010880e+08	2.226077500e+05	
3.204707291e+02	1.939343600e+07	7.043964375e+05	1.653995200e+08	2.229442031e+05	
3.193626629e+02	2.021220000e+07	7.384795000e+05	1.693842400e+08	2.234770625e+05	
3.182573907e+02	2.106372200e+07	7.741344375e+05	1.734569120e+08	2.238233594e+05	
3.171549054e+02	2.194922000e+07	8.114305625e+05	1.776193760e+08	2.241702344e+05	
3.160551999e+02	2.286996000e+07	8.504403750e+05	1.818734720e+08	2.245175469e+05	
3.149582673e+02	2.382729000e+07	8.912369375e+05	1.862208640e+08	2.248654531e+05	
3.138641005e+02	2.482257600e+07	9.338997500e+05	1.906636480e+08	2.252139375e+05	
3.127726926e+02	2.585723600e+07	9.785091250e+05	1.952036480e+08	2.255630156e+05	
3.116840366e+02	2.693273400e+07	1.025150000e+06	1.998428160e+08	2.259127500e+05	
3.105981256e+02	2.805062000e+07	1.073911250e+06	2.045832800e+08	2.262631406e+05	
3.095149527e+02	2.921239200e+07	1.124880875e+06	2.094266720e+08	2.266142344e+05	
3.084345109e+02	3.041972000e+07	1.178155375e+06	2.143752480e+08	2.269660625e+05	
3.073567934e+02	3.167436000e+07	1.233837125e+06	2.194313440e+08	2.273186875e+05	
3.062817933e+02	3.297788600e+07	1.292023250e+06	2.245965440e+08	2.276721406e+05	
3.052095037e+02	3.433229600e+07	1.352826875e+06	2.298735840e+08	2.280264531e+05	
3.041399179e+02	3.573933600e+07	1.416358250e+06	2.352645440e+08	2.283816562e+05	
3.030730290e+02	3.720096000e+07	1.482730250e+06	2.407766240e+08	2.287378125e+05	
3.020088301e+02	3.871922000e+07	1.552068375e+06	2.464023680e+08	2.290949531e+05	
3.009473146e+02	4.029602800e+07	1.624492000e+06	2.521485120e+08	2.294531250e+05	
2.998884756e+02	4.193374400e+07	1.700140125e+06	2.582868800e+08	2.298194688e+05	
2.988323065e+02	4.363445200e+07	1.779145250e+06	2.642937280e+08	2.301801875e+05	
2.977788003e+02	4.540037200e+07	1.861644125e+06	2.704287360e+08	2.305421094e+05	
2.967279506e+02	4.723406000e+07	1.947793875e+06	2.766952320e+08	2.309052969e+05	
2.956797505e+02	4.913777600e+07	2.037737750e+06	2.830949760e+08	2.312697500e+05	
2.946341934e+02	5.111417600e+07	2.131641000e+06	2.896312640e+08	2.316356250e+05	
2.935912726e+02	5.316579600e+07	2.229666250e+06	2.963064000e+08	2.320028750e+05	
2.925509814e+02	5.529534400e+07	2.331985000e+06	3.031230400e+08	2.323716406e+05	
2.915133133e+02	5.750575200e+07	2.438783250e+06	3.100846400e+08	2.327419844e+05	
2.904782616e+02	5.979971600e+07	2.550237500e+06	3.171933120e+08	2.331139062e+05	
2.894458198e+02	6.218035200e+07	2.666545000e+06	3.244521600e+08	2.334875312e+05	
2.884159812e+02	6.465074000e+07	2.787910500e+06	3.318644480e+08	2.338629062e+05	
2.873887392e+02	6.721406400e+07	2.914539750e+06	3.394329280e+08	2.342401719e+05	
2.863640874e+02	6.987360800e+07	3.046648500e+06	3.471606400e+08	2.346193125e+05	
2.853420192e+02	7.263274400e+07	3.184463000e+06	3.550508160e+08	2.350004688e+05	
2.843225281e+02	7.549504000e+07	3.328214500e+06	3.631062080e+08	2.353837031e+05	
2.833056075e+02	7.846426400e+07	3.478160000e+06	3.713310720e+08	2.357691094e+05	
2.822912511e+02	8.154398400e+07	3.634535250e+06	3.797276800e+08	2.361567969e+05	
2.812794523e+02	8.473819200e+07	3.797614000e+06	3.882999360e+08	2.365467812e+05	
2.802702047e+02	8.805096000e+07	3.967669500e+06	3.970513920e+08	2.369392031e+05	
2.792635019e+02	9.148647200e+07	4.144985500e+06	4.059853120e+08	2.373342500e+05	
2.782593374e+02	9.504879200e+07	4.329848500e+06	4.151051200e+08	2.377318750e+05	
2.772577048e+02	9.874272800e+07	4.522580500e+06	4.244150720e+08	2.381323125e+05	
2.762585978e+02	1.025725040e+08	4.723483500e+06	4.339181440e+08	2.385356250e+05	
2.752620100e+02	1.065430960e+08	4.932897500e+06	4.436184960e+08	2.389418594e+05	
2.742679350e+02	1.106593840e+08	5.151167500e+06	4.535202880e+08	2.393512188e+05	
2.732763666e+02	1.149263920e+08	5.378647000e+06	4.636270080e+08	2.397638906e+05	
2.722872983e+02	1.193493600e+08	5.615708500e+06	4.739430400e+08	2.401798281e+05	
2.713007239e+02	1.239337760e+08	5.862738500e+06	4.844723840e+08	2.405992656e+05	
2.703166371e+02	1.286850480e+08	6.120129000e+06	4.952189760e+08	2.410223438e+05	
2.693350316e+02	1.336092240e+08	6.388310000e+06	5.061876800e+08	2.414492344e+05	
