# Satellite simulation of the  emission
# Flux in R
# Tangent altitude in Km
# Total Flux
# 95.8
1.000000000e+02	1.350651525e+06	1.350651525e+06	
1.020100503e+02	1.553941613e+06	1.553941613e+06	
1.040201005e+02	1.606508913e+06	1.606508913e+06	
1.060301508e+02	1.496040709e+06	1.496040709e+06	
1.080402010e+02	1.298664623e+06	1.298664623e+06	
1.100502513e+02	1.082513739e+06	1.082513739e+06	
1.120603015e+02	8.832062739e+05	8.832062739e+05	
1.140703518e+02	7.141667865e+05	7.141667865e+05	
1.160804020e+02	5.772590016e+05	5.772590016e+05	
1.180904523e+02	4.691004808e+05	4.691004808e+05	
1.201005025e+02	3.846781775e+05	3.846781775e+05	
1.221105528e+02	3.191238480e+05	3.191238480e+05	
1.241206030e+02	2.678408438e+05	2.678408438e+05	
1.261306533e+02	2.268837850e+05	2.268837850e+05	
1.281407035e+02	1.937950609e+05	1.937950609e+05	
1.301507538e+02	1.667403409e+05	1.667403409e+05	
1.321608040e+02	1.443777293e+05	1.443777293e+05	
1.341708543e+02	1.257228669e+05	1.257228669e+05	
1.361809045e+02	1.100248394e+05	1.100248394e+05	
1.381909548e+02	9.671784297e+04	9.671784297e+04	
1.402010050e+02	8.536166180e+04	8.536166180e+04	
1.422110553e+02	7.560994696e+04	7.560994696e+04	
1.442211055e+02	6.718924900e+04	6.718924900e+04	
1.462311558e+02	5.988139482e+04	5.988139482e+04	
1.482412060e+02	5.350978837e+04	5.350978837e+04	
1.502512563e+02	4.793165280e+04	4.793165280e+04	
1.522613065e+02	4.303022767e+04	4.303022767e+04	
1.542713568e+02	3.870740631e+04	3.870740631e+04	
1.562814070e+02	3.488317194e+04	3.488317194e+04	
1.582914573e+02	3.148974878e+04	3.148974878e+04	
1.603015075e+02	2.847056393e+04	2.847056393e+04	
1.623115578e+02	2.577842276e+04	2.577842276e+04	
1.643216080e+02	2.337222662e+04	2.337222662e+04	
1.663316583e+02	2.121642725e+04	2.121642725e+04	
1.683417085e+02	1.928133480e+04	1.928133480e+04	
1.703517588e+02	1.754098734e+04	1.754098734e+04	
1.723618090e+02	1.597331309e+04	1.597331309e+04	
1.743718593e+02	1.455907843e+04	1.455907843e+04	
1.763819095e+02	1.328125929e+04	1.328125929e+04	
1.783919598e+02	1.212498448e+04	1.212498448e+04	
1.804020101e+02	1.107771928e+04	1.107771928e+04	
1.824120603e+02	1.012766763e+04	1.012766763e+04	
1.844221106e+02	9.265338698e+03	9.265338698e+03	
1.864321608e+02	8.481200128e+03	8.481200128e+03	
1.884422111e+02	7.768175768e+03	7.768175768e+03	
1.904522613e+02	7.118564175e+03	7.118564175e+03	
1.924623116e+02	6.526679703e+03	6.526679703e+03	
1.944723618e+02	5.986681786e+03	5.986681786e+03	
1.964824121e+02	5.493773309e+03	5.493773309e+03	
1.984924623e+02	5.043439553e+03	5.043439553e+03	
2.005025126e+02	4.631652174e+03	4.631652174e+03	
2.025125628e+02	4.255097838e+03	4.255097838e+03	
2.045226131e+02	3.910236058e+03	3.910236058e+03	
2.065326633e+02	3.594500670e+03	3.594500670e+03	
2.085427136e+02	3.305042971e+03	3.305042971e+03	
2.105527638e+02	3.039663146e+03	3.039663146e+03	
2.125628141e+02	2.796276585e+03	2.796276585e+03	
2.145728643e+02	2.572817784e+03	2.572817784e+03	
2.165829146e+02	2.367749973e+03	2.367749973e+03	
2.185929648e+02	2.179347220e+03	2.179347220e+03	
2.206030151e+02	2.006231897e+03	2.006231897e+03	
2.226130653e+02	1.847161334e+03	1.847161334e+03	
2.246231156e+02	1.700890195e+03	1.700890195e+03	
2.266331658e+02	1.566400033e+03	1.566400033e+03	
2.286432161e+02	1.442734409e+03	1.442734409e+03	
2.306532663e+02	1.328946554e+03	1.328946554e+03	
2.326633166e+02	1.224256446e+03	1.224256446e+03	
2.346733668e+02	1.127911521e+03	1.127911521e+03	
2.366834171e+02	1.039255717e+03	1.039255717e+03	
2.386934673e+02	9.576617548e+02	9.576617548e+02	
2.407035176e+02	8.825444258e+02	8.825444258e+02	
2.427135678e+02	8.133906061e+02	8.133906061e+02	
2.447236181e+02	7.497267516e+02	7.497267516e+02	
2.467336683e+02	6.911161485e+02	6.911161485e+02	
2.487437186e+02	6.371496554e+02	6.371496554e+02	
2.507537688e+02	5.874505467e+02	5.874505467e+02	
2.527638191e+02	5.416807282e+02	5.416807282e+02	
2.547738693e+02	4.995218557e+02	4.995218557e+02	
2.567839196e+02	4.606954351e+02	4.606954351e+02	
2.587939698e+02	4.249392476e+02	4.249392476e+02	
2.608040201e+02	3.920074315e+02	3.920074315e+02	
2.628140704e+02	3.616641237e+02	3.616641237e+02	
2.648241206e+02	3.337070625e+02	3.337070625e+02	
2.668341709e+02	3.079469738e+02	3.079469738e+02	
2.688442211e+02	2.842106157e+02	2.842106157e+02	
2.708542714e+02	2.623341998e+02	2.623341998e+02	
2.728643216e+02	2.421698654e+02	2.421698654e+02	
2.748743719e+02	2.235857458e+02	2.235857458e+02	
2.768844221e+02	2.064537096e+02	2.064537096e+02	
2.788944724e+02	1.906577397e+02	1.906577397e+02	
2.809045226e+02	1.760954239e+02	1.760954239e+02	
2.829145729e+02	1.626667076e+02	1.626667076e+02	
2.849246231e+02	1.502799569e+02	1.502799569e+02	
2.869346734e+02	1.388554442e+02	1.388554442e+02	
2.889447236e+02	1.283139338e+02	1.283139338e+02	
2.909547739e+02	1.185904503e+02	1.185904503e+02	
2.929648241e+02	1.096188838e+02	1.096188838e+02	
2.949748744e+02	1.013382792e+02	1.013382792e+02	
2.969849246e+02	9.369610592e+01	9.369610592e+01	
2.989949749e+02	8.663924110e+01	8.663924110e+01	
3.010050251e+02	8.012592851e+01	8.012592851e+01	
3.030150754e+02	7.411149187e+01	7.411149187e+01	
3.050251256e+02	6.855762913e+01	6.855762913e+01	
3.070351759e+02	6.342715107e+01	6.342715107e+01	
3.090452261e+02	5.868954550e+01	5.868954550e+01	
3.110552764e+02	5.431211579e+01	5.431211579e+01	
3.130653266e+02	5.026685191e+01	5.026685191e+01	
3.150753769e+02	4.652781506e+01	4.652781506e+01	
3.170854271e+02	4.307198314e+01	4.307198314e+01	
3.190954774e+02	3.987864657e+01	3.987864657e+01	
3.211055276e+02	3.692630750e+01	3.692630750e+01	
3.231155779e+02	3.419685621e+01	3.419685621e+01	
3.251256281e+02	3.167194628e+01	3.167194628e+01	
3.271356784e+02	2.933639761e+01	2.933639761e+01	
3.291457286e+02	2.717673362e+01	2.717673362e+01	
3.311557789e+02	2.517861458e+01	2.517861458e+01	
3.331658291e+02	2.333009909e+01	2.333009909e+01	
3.351758794e+02	2.161918408e+01	2.161918408e+01	
3.371859296e+02	2.003606902e+01	2.003606902e+01	
3.391959799e+02	1.857066278e+01	1.857066278e+01	
3.412060302e+02	1.721381262e+01	1.721381262e+01	
3.432160804e+02	1.595791574e+01	1.595791574e+01	
3.452261307e+02	1.479503990e+01	1.479503990e+01	
3.472361809e+02	1.371836657e+01	1.371836657e+01	
3.492462312e+02	1.272071399e+01	1.272071399e+01	
3.512562814e+02	1.179693319e+01	1.179693319e+01	
3.532663317e+02	1.094128521e+01	1.094128521e+01	
3.552763819e+02	1.014856114e+01	1.014856114e+01	
3.572864322e+02	9.413678622e+00	9.413678622e+00	
3.592964824e+02	8.733229496e+00	8.733229496e+00	
3.613065327e+02	8.102285570e+00	8.102285570e+00	
3.633165829e+02	7.517484687e+00	7.517484687e+00	
3.653266332e+02	6.975517490e+00	6.975517490e+00	
3.673366834e+02	6.473275977e+00	6.473275977e+00	
3.693467337e+02	6.007319760e+00	6.007319760e+00	
3.713567839e+02	5.575542610e+00	5.575542610e+00	
3.733668342e+02	5.175004558e+00	5.175004558e+00	
3.753768844e+02	4.803614074e+00	4.803614074e+00	
3.773869347e+02	4.459176085e+00	4.459176085e+00	
3.793969849e+02	4.139630822e+00	4.139630822e+00	
3.814070352e+02	3.843346738e+00	3.843346738e+00	
3.834170854e+02	3.568309126e+00	3.568309126e+00	
3.854271357e+02	3.313265212e+00	3.313265212e+00	
3.874371859e+02	3.076604980e+00	3.076604980e+00	
3.894472362e+02	2.856944189e+00	2.856944189e+00	
3.914572864e+02	2.653153546e+00	2.653153546e+00	
3.934673367e+02	2.463954597e+00	2.463954597e+00	
3.954773869e+02	2.288447251e+00	2.288447251e+00	
3.974874372e+02	2.125428792e+00	2.125428792e+00	
3.994974874e+02	1.974182345e+00	1.974182345e+00	
4.015075377e+02	1.833740098e+00	1.833740098e+00	
4.035175879e+02	1.703317847e+00	1.703317847e+00	
4.055276382e+02	1.582266112e+00	1.582266112e+00	
4.075376884e+02	1.469855759e+00	1.469855759e+00	
4.095477387e+02	1.365424648e+00	1.365424648e+00	
4.115577889e+02	1.268467645e+00	1.268467645e+00	
4.135678392e+02	1.178390002e+00	1.178390002e+00	
4.155778894e+02	1.094758182e+00	1.094758182e+00	
4.175879397e+02	1.017031950e+00	1.017031950e+00	
4.195979899e+02	9.448452234e-01	9.448452234e-01	
4.216080402e+02	8.777612180e-01	8.777612180e-01	
4.236180905e+02	8.154569037e-01	8.154569037e-01	
4.256281407e+02	7.575511769e-01	7.575511769e-01	
4.276381910e+02	7.037449052e-01	7.037449052e-01	
4.296482412e+02	6.537280812e-01	6.537280812e-01	
4.316582915e+02	6.072588660e-01	6.072588660e-01	
4.336683417e+02	5.640554353e-01	5.640554353e-01	
4.356783920e+02	5.239117568e-01	5.239117568e-01	
4.376884422e+02	4.865917095e-01	4.865917095e-01	
4.396984925e+02	4.518836138e-01	4.518836138e-01	
4.417085427e+02	4.196351475e-01	4.196351475e-01	
4.437185930e+02	3.896228619e-01	3.896228619e-01	
4.457286432e+02	3.617482496e-01	3.617482496e-01	
4.477386935e+02	3.358005802e-01	3.358005802e-01	
4.497487437e+02	3.116900431e-01	3.116900431e-01	
4.517587940e+02	2.892544545e-01	2.892544545e-01	
4.537688442e+02	2.683898537e-01	2.683898537e-01	
4.557788945e+02	2.489884077e-01	2.489884077e-01	
4.577889447e+02	2.309368333e-01	2.309368333e-01	
4.597989950e+02	2.141400007e-01	2.141400007e-01	
4.618090452e+02	1.985251467e-01	1.985251467e-01	
4.638190955e+02	1.839808216e-01	1.839808216e-01	
4.658291457e+02	1.704623822e-01	1.704623822e-01	
4.678391960e+02	1.578734651e-01	1.578734651e-01	
4.698492462e+02	1.461600283e-01	1.461600283e-01	
4.718592965e+02	1.352619172e-01	1.352619172e-01	
4.738693467e+02	1.251159190e-01	1.251159190e-01	
4.758793970e+02	1.156686529e-01	1.156686529e-01	
4.778894472e+02	1.068818984e-01	1.068818984e-01	
4.798994975e+02	9.869629589e-02	9.869629589e-02	
4.819095477e+02	9.107445780e-02	9.107445780e-02	
4.839195980e+02	8.398274190e-02	8.398274190e-02	
4.859296482e+02	7.737407886e-02	7.737407886e-02	
4.879396985e+02	7.121957060e-02	7.121957060e-02	
4.899497487e+02	6.548925423e-02	6.548925423e-02	
4.919597990e+02	6.015286810e-02	6.015286810e-02	
4.939698492e+02	5.517876733e-02	5.517876733e-02	
4.959798995e+02	5.054808698e-02	5.054808698e-02	
4.979899497e+02	4.623182195e-02	4.623182195e-02	
5.000000000e+02	4.220869845e-02	4.220869845e-02	
#	AeroPlanets 1.01
#	Copyright G Gronoff 2009
#	Report bugs : guillaume.gronoff@gmail.com
#
#	Launched :Tue Dec 19 13:05:08 2017
# Planet:Earth
# Electron impact ionization used
# Electron impact ionization error: -27.5547% (>0 : gain)

