# Satellite simulation of the  emission
# Flux in R
# Tangent altitude in Km
# Total Flux
# 135.4
1.000000000e+02	2.003187311e+05	2.003187311e+05	
1.020100503e+02	2.302550824e+05	2.302550824e+05	
1.040201005e+02	2.373553891e+05	2.373553891e+05	
1.060301508e+02	2.203689507e+05	2.203689507e+05	
1.080402010e+02	1.908234562e+05	1.908234562e+05	
1.100502513e+02	1.587582175e+05	1.587582175e+05	
1.120603015e+02	1.293481253e+05	1.293481253e+05	
1.140703518e+02	1.044967822e+05	1.044967822e+05	
1.160804020e+02	8.442619333e+04	8.442619333e+04	
1.180904523e+02	6.860423478e+04	6.860423478e+04	
1.201005025e+02	5.627433628e+04	5.627433628e+04	
1.221105528e+02	4.671140103e+04	4.671140103e+04	
1.241206030e+02	3.923639137e+04	3.923639137e+04	
1.261306533e+02	3.326938421e+04	3.326938421e+04	
1.281407035e+02	2.844966272e+04	2.844966272e+04	
1.301507538e+02	2.450863123e+04	2.450863123e+04	
1.321608040e+02	2.125018474e+04	2.125018474e+04	
1.341708543e+02	1.853071615e+04	1.853071615e+04	
1.361809045e+02	1.624084591e+04	1.624084591e+04	
1.381909548e+02	1.429826827e+04	1.429826827e+04	
1.402010050e+02	1.263902849e+04	1.263902849e+04	
1.422110553e+02	1.121284177e+04	1.121284177e+04	
1.442211055e+02	9.980024103e+03	9.980024103e+03	
1.462311558e+02	8.908920640e+03	8.908920640e+03	
1.482412060e+02	7.973914292e+03	7.973914292e+03	
1.502512563e+02	7.154301113e+03	7.154301113e+03	
1.522613065e+02	6.433148431e+03	6.433148431e+03	
1.542713568e+02	5.796228293e+03	5.796228293e+03	
1.562814070e+02	5.231939393e+03	5.231939393e+03	
1.582914573e+02	4.730450991e+03	4.730450991e+03	
1.603015075e+02	4.283548947e+03	4.283548947e+03	
1.623115578e+02	3.884373055e+03	3.884373055e+03	
1.643216080e+02	3.526956877e+03	3.526956877e+03	
1.663316583e+02	3.206139199e+03	3.206139199e+03	
1.683417085e+02	2.917606702e+03	2.917606702e+03	
1.703517588e+02	2.657597838e+03	2.657597838e+03	
1.723618090e+02	2.422918757e+03	2.422918757e+03	
1.743718593e+02	2.210783836e+03	2.210783836e+03	
1.763819095e+02	2.018730372e+03	2.018730372e+03	
1.783919598e+02	1.844605087e+03	1.844605087e+03	
1.804020101e+02	1.686582021e+03	1.686582021e+03	
1.824120603e+02	1.542937650e+03	1.542937650e+03	
1.844221106e+02	1.412293807e+03	1.412293807e+03	
1.864321608e+02	1.293266925e+03	1.293266925e+03	
1.884422111e+02	1.184829701e+03	1.184829701e+03	
1.904522613e+02	1.085841960e+03	1.085841960e+03	
1.924623116e+02	9.954525333e+02	9.954525333e+02	
1.944723618e+02	9.127972723e+02	9.127972723e+02	
1.964824121e+02	8.371709111e+02	8.371709111e+02	
1.984924623e+02	7.679106955e+02	7.679106955e+02	
2.005025126e+02	7.044240382e+02	7.044240382e+02	
2.025125628e+02	6.462237122e+02	6.462237122e+02	
2.045226131e+02	5.927901791e+02	5.927901791e+02	
2.065326633e+02	5.437501584e+02	5.437501584e+02	
2.085427136e+02	4.986889763e+02	4.986889763e+02	
2.105527638e+02	4.572871418e+02	4.572871418e+02	
2.125628141e+02	4.192409805e+02	4.192409805e+02	
2.145728643e+02	3.842504884e+02	3.842504884e+02	
2.165829146e+02	3.520949905e+02	3.520949905e+02	
2.185929648e+02	3.225233503e+02	3.225233503e+02	
2.206030151e+02	2.953359051e+02	2.953359051e+02	
2.226130653e+02	2.703518331e+02	2.703518331e+02	
2.246231156e+02	2.473878034e+02	2.473878034e+02	
2.266331658e+02	2.262942714e+02	2.262942714e+02	
2.286432161e+02	2.069294144e+02	2.069294144e+02	
2.306532663e+02	1.891506518e+02	1.891506518e+02	
2.326633166e+02	1.728397650e+02	1.728397650e+02	
2.346733668e+02	1.578810155e+02	1.578810155e+02	
2.366834171e+02	1.441726843e+02	1.441726843e+02	
2.386934673e+02	1.316162093e+02	1.316162093e+02	
2.407035176e+02	1.201185285e+02	1.201185285e+02	
2.427135678e+02	1.095969542e+02	1.095969542e+02	
2.447236181e+02	9.997430219e+01	9.997430219e+01	
2.467336683e+02	9.117889130e+01	9.117889130e+01	
2.487437186e+02	8.314266727e+01	8.314266727e+01	
2.507537688e+02	7.580263570e+01	7.580263570e+01	
2.527638191e+02	6.910159965e+01	6.910159965e+01	
2.547738693e+02	6.298561880e+01	6.298561880e+01	
2.567839196e+02	5.740700887e+01	5.740700887e+01	
2.587939698e+02	5.232104180e+01	5.232104180e+01	
2.608040201e+02	4.768534699e+01	4.768534699e+01	
2.628140704e+02	4.345965594e+01	4.345965594e+01	
2.648241206e+02	3.960904890e+01	3.960904890e+01	
2.668341709e+02	3.610112098e+01	3.610112098e+01	
2.688442211e+02	3.290608673e+01	3.290608673e+01	
2.708542714e+02	2.999601514e+01	2.999601514e+01	
2.728643216e+02	2.734582195e+01	2.734582195e+01	
2.748743719e+02	2.493301744e+01	2.493301744e+01	
2.768844221e+02	2.273613030e+01	2.273613030e+01	
2.788944724e+02	2.073581053e+01	2.073581053e+01	
2.809045226e+02	1.891488548e+01	1.891488548e+01	
2.829145729e+02	1.725694276e+01	1.725694276e+01	
2.849246231e+02	1.574709496e+01	1.574709496e+01	
2.869346734e+02	1.437234665e+01	1.437234665e+01	
2.889447236e+02	1.312006441e+01	1.312006441e+01	
2.909547739e+02	1.197982729e+01	1.197982729e+01	
2.929648241e+02	1.094131354e+01	1.094131354e+01	
2.949748744e+02	9.995089670e+00	9.995089670e+00	
2.969849246e+02	9.133009011e+00	9.133009011e+00	
2.989949749e+02	8.347116811e+00	8.347116811e+00	
3.010050251e+02	7.631054570e+00	7.631054570e+00	
3.030150754e+02	6.978230507e+00	6.978230507e+00	
3.050251256e+02	6.383020121e+00	6.383020121e+00	
3.070351759e+02	5.840072400e+00	5.840072400e+00	
3.090452261e+02	5.344968494e+00	5.344968494e+00	
3.110552764e+02	4.893159348e+00	4.893159348e+00	
3.130653266e+02	4.480736800e+00	4.480736800e+00	
3.150753769e+02	4.104154220e+00	4.104154220e+00	
3.170854271e+02	3.760289761e+00	3.760289761e+00	
3.190954774e+02	3.446338726e+00	3.446338726e+00	
3.211055276e+02	3.159499763e+00	3.159499763e+00	
3.231155779e+02	2.897402017e+00	2.897402017e+00	
3.251256281e+02	2.657715602e+00	2.657715602e+00	
3.271356784e+02	2.438511910e+00	2.438511910e+00	
3.291457286e+02	2.238090724e+00	2.238090724e+00	
3.311557789e+02	2.054701704e+00	2.054701704e+00	
3.331658291e+02	1.886890573e+00	1.886890573e+00	
3.351758794e+02	1.733221686e+00	1.733221686e+00	
3.371859296e+02	1.592527369e+00	1.592527369e+00	
3.391959799e+02	1.463643821e+00	1.463643821e+00	
3.412060302e+02	1.345516868e+00	1.345516868e+00	
3.432160804e+02	1.237271545e+00	1.237271545e+00	
3.452261307e+02	1.138029245e+00	1.138029245e+00	
3.472361809e+02	1.047033671e+00	1.047033671e+00	
3.492462312e+02	9.635069896e-01	9.635069896e-01	
3.512562814e+02	8.868867135e-01	8.868867135e-01	
3.532663317e+02	8.165670713e-01	8.165670713e-01	
3.552763819e+02	7.519999807e-01	7.519999807e-01	
3.572864322e+02	6.926654549e-01	6.926654549e-01	
3.592964824e+02	6.382057907e-01	6.382057907e-01	
3.613065327e+02	5.881296841e-01	5.881296841e-01	
3.633165829e+02	5.421001838e-01	5.421001838e-01	
3.653266332e+02	4.997896349e-01	4.997896349e-01	
3.673366834e+02	4.608933332e-01	4.608933332e-01	
3.693467337e+02	4.250858621e-01	4.250858621e-01	
3.713567839e+02	3.921609595e-01	3.921609595e-01	
3.733668342e+02	3.618459185e-01	3.618459185e-01	
3.753768844e+02	3.339437037e-01	3.339437037e-01	
3.773869347e+02	3.082530999e-01	3.082530999e-01	
3.793969849e+02	2.845864315e-01	2.845864315e-01	
3.814070352e+02	2.627958359e-01	2.627958359e-01	
3.834170854e+02	2.427032938e-01	2.427032938e-01	
3.854271357e+02	2.241962703e-01	2.241962703e-01	
3.874371859e+02	2.071350099e-01	2.071350099e-01	
3.894472362e+02	1.913996088e-01	1.913996088e-01	
3.914572864e+02	1.768930430e-01	1.768930430e-01	
3.934673367e+02	1.635067757e-01	1.635067757e-01	
3.954773869e+02	1.511647191e-01	1.511647191e-01	
3.974874372e+02	1.397672280e-01	1.397672280e-01	
3.994974874e+02	1.292545082e-01	1.292545082e-01	
4.015075377e+02	1.195473463e-01	1.195473463e-01	
4.035175879e+02	1.105824608e-01	1.105824608e-01	
4.055276382e+02	1.023066729e-01	1.023066729e-01	
4.075376884e+02	9.466224008e-02	9.466224008e-02	
4.095477387e+02	8.759680509e-02	8.759680509e-02	
4.115577889e+02	8.107027961e-02	8.107027961e-02	
4.135678392e+02	7.503672079e-02	7.503672079e-02	
4.155778894e+02	6.946209822e-02	6.946209822e-02	
4.175879397e+02	6.430543041e-02	6.430543041e-02	
4.195979899e+02	5.953844091e-02	5.953844091e-02	
4.216080402e+02	5.512832027e-02	5.512832027e-02	
4.236180905e+02	5.105064518e-02	5.105064518e-02	
4.256281407e+02	4.727697283e-02	4.727697283e-02	
4.276381910e+02	4.378533525e-02	4.378533525e-02	
4.296482412e+02	4.055280277e-02	4.055280277e-02	
4.316582915e+02	3.756168989e-02	3.756168989e-02	
4.336683417e+02	3.479158302e-02	3.479158302e-02	
4.356783920e+02	3.222755473e-02	3.222755473e-02	
4.376884422e+02	2.985270774e-02	2.985270774e-02	
4.396984925e+02	2.765206807e-02	2.765206807e-02	
4.417085427e+02	2.561466960e-02	2.561466960e-02	
4.437185930e+02	2.372500204e-02	2.372500204e-02	
4.457286432e+02	2.197595228e-02	2.197595228e-02	
4.477386935e+02	2.035304643e-02	2.035304643e-02	
4.497487437e+02	1.884992965e-02	1.884992965e-02	
4.517587940e+02	1.745555038e-02	1.745555038e-02	
4.537688442e+02	1.616273636e-02	1.616273636e-02	
4.557788945e+02	1.496415850e-02	1.496415850e-02	
4.577889447e+02	1.385215615e-02	1.385215615e-02	
4.597989950e+02	1.282034050e-02	1.282034050e-02	
4.618090452e+02	1.186377126e-02	1.186377126e-02	
4.638190955e+02	1.097510136e-02	1.097510136e-02	
4.658291457e+02	1.015128620e-02	1.015128620e-02	
4.678391960e+02	9.386017768e-03	9.386017768e-03	
4.698492462e+02	8.675702236e-03	8.675702236e-03	
4.718592965e+02	8.016418107e-03	8.016418107e-03	
4.738693467e+02	7.404038476e-03	7.404038476e-03	
4.758793970e+02	6.835107577e-03	6.835107577e-03	
4.778894472e+02	6.307128556e-03	6.307128556e-03	
4.798994975e+02	5.816302400e-03	5.816302400e-03	
4.819095477e+02	5.360223253e-03	5.360223253e-03	
4.839195980e+02	4.936732139e-03	4.936732139e-03	
4.859296482e+02	4.542847967e-03	4.542847967e-03	
4.879396985e+02	4.176726724e-03	4.176726724e-03	
4.899497487e+02	3.836477622e-03	3.836477622e-03	
4.919597990e+02	3.520185827e-03	3.520185827e-03	
4.939698492e+02	3.225877307e-03	3.225877307e-03	
4.959798995e+02	2.952359684e-03	2.952359684e-03	
4.979899497e+02	2.697833086e-03	2.697833086e-03	
5.000000000e+02	2.460971031e-03	2.460971031e-03	
#	AeroPlanets 1.01
#	Copyright G Gronoff 2009
#	Report bugs : guillaume.gronoff@gmail.com
#
#	Launched :Tue Dec 19 13:05:08 2017
# Planet:Earth
# Electron impact ionization used
# Electron impact ionization error: -27.5547% (>0 : gain)

