# Atmosphere temperatures 
# Density in cm-3
# Altitude in km
# Electron (TEC 2.966516753e+11 cm-2)
1.600000000e+03	7.435180000e+02
1.596803200e+03	7.514918458e+02
1.593612800e+03	7.595349861e+02
1.590428800e+03	7.676478171e+02
1.587251200e+03	7.759020779e+02
1.584080000e+03	7.842394271e+02
1.580915200e+03	7.926492664e+02
1.577756800e+03	8.011931331e+02
1.574604800e+03	8.098366568e+02
1.571459200e+03	8.185555946e+02
1.568320000e+03	8.273979753e+02
1.565187200e+03	8.363592607e+02
1.562060800e+03	8.453989979e+02
1.558940800e+03	8.545490803e+02
1.555827200e+03	8.638408407e+02
1.552720000e+03	8.732142219e+02
1.549619200e+03	8.826814530e+02
1.546524800e+03	8.923162240e+02
1.543436800e+03	9.020359077e+02
1.540355200e+03	9.118409905e+02
1.537280000e+03	9.218208087e+02
1.534211200e+03	9.319004475e+02
1.531148800e+03	9.420689355e+02
1.528092800e+03	9.523919983e+02
1.525043200e+03	9.628458384e+02
1.522000000e+03	9.733921235e+02
1.518963200e+03	9.840678807e+02
1.515932800e+03	9.949088897e+02
1.512908800e+03	1.005846054e+03
1.509891200e+03	1.016884092e+03
1.506880000e+03	1.028131897e+03
1.503875200e+03	1.039479811e+03
1.500876800e+03	1.050928406e+03
1.497884800e+03	1.062558974e+03
1.494899200e+03	1.074326726e+03
1.491920000e+03	1.086199159e+03
1.488947200e+03	1.098221790e+03
1.485980800e+03	1.110433840e+03
1.483020800e+03	1.122754898e+03
1.480067200e+03	1.135185583e+03
1.477120000e+03	1.147847602e+03
1.474179200e+03	1.160625750e+03
1.471244800e+03	1.173517873e+03
1.468316800e+03	1.186602726e+03
1.465395200e+03	1.199862682e+03
1.462480000e+03	1.213241280e+03
1.459571200e+03	1.226759356e+03
1.456668800e+03	1.240515497e+03
1.453772800e+03	1.254395047e+03
1.450883200e+03	1.268398700e+03
1.448000000e+03	1.282628206e+03
1.445123200e+03	1.297030255e+03
1.442252800e+03	1.311561437e+03
1.439388800e+03	1.326254085e+03
1.436531200e+03	1.341195505e+03
1.433680000e+03	1.356271223e+03
1.430835200e+03	1.371481989e+03
1.427996800e+03	1.386942086e+03
1.425164800e+03	1.402588773e+03
1.422339200e+03	1.418376018e+03
1.419520000e+03	1.434332481e+03
1.416707200e+03	1.450568720e+03
1.413900800e+03	1.466951177e+03
1.411100800e+03	1.483480661e+03
1.408307200e+03	1.500261699e+03
1.405520000e+03	1.517261522e+03
1.402739200e+03	1.534414275e+03
1.399964800e+03	1.551723038e+03
1.397196800e+03	1.569362707e+03
1.394435200e+03	1.587161419e+03
1.391680000e+03	1.605120041e+03
1.388931200e+03	1.623313045e+03
1.386188800e+03	1.641785919e+03
1.383452800e+03	1.660425161e+03
1.380723200e+03	1.679231671e+03
1.378000000e+03	1.698349936e+03
1.375283200e+03	1.717692557e+03
1.372572800e+03	1.737209127e+03
1.369868800e+03	1.756910501e+03
1.367171200e+03	1.776984281e+03
1.364480000e+03	1.797238973e+03
1.361795200e+03	1.817675543e+03
1.359116800e+03	1.838365578e+03
1.356444800e+03	1.859385689e+03
1.353779200e+03	1.880594934e+03
1.351120000e+03	1.901994308e+03
1.348467200e+03	1.923713345e+03
1.345820800e+03	1.945721866e+03
1.343180800e+03	1.967928039e+03
1.340547200e+03	1.990332890e+03
1.337920000e+03	2.013125001e+03
1.335299200e+03	2.036171424e+03
1.332684800e+03	2.059424436e+03
1.330076800e+03	2.082885098e+03
1.327475200e+03	2.106791205e+03
1.324880000e+03	2.130919134e+03
1.322291200e+03	2.155262862e+03
1.319708800e+03	2.179852712e+03
1.317132800e+03	2.204893190e+03
1.314563200e+03	2.230158029e+03
1.312000000e+03	2.255648355e+03
1.309443200e+03	2.281423230e+03
1.306892800e+03	2.307636967e+03
1.304348800e+03	2.334084986e+03
1.301811200e+03	2.360768446e+03
1.299280000e+03	2.390092501e+03
1.296755200e+03	2.425822913e+03
1.294236800e+03	2.461994865e+03
1.291724800e+03	2.498612199e+03
1.289219200e+03	2.535678766e+03
1.286720000e+03	2.573198420e+03
1.284227200e+03	2.611175021e+03
1.281740800e+03	2.649612437e+03
1.279260800e+03	2.688514537e+03
1.276787200e+03	2.727885197e+03
1.274320000e+03	2.767728293e+03
1.271859200e+03	2.808047708e+03
1.269404800e+03	2.848541555e+03
1.266956800e+03	2.888545352e+03
1.264515200e+03	2.928917883e+03
1.262080000e+03	2.969394527e+03
1.259651200e+03	3.010321956e+03
1.257228800e+03	3.051703412e+03
1.254812800e+03	3.093542130e+03
1.252403200e+03	3.135841339e+03
1.250000000e+03	3.178604264e+03
1.247603200e+03	3.221834123e+03
1.245212800e+03	3.265534126e+03
1.242828800e+03	3.309707476e+03
1.240451200e+03	3.354357368e+03
1.238080000e+03	3.398539742e+03
1.235715200e+03	3.442957579e+03
1.233356800e+03	3.487650771e+03
1.231004800e+03	3.532720192e+03
1.228659200e+03	3.578247007e+03
1.226320000e+03	3.624233908e+03
1.223987200e+03	3.670683574e+03
1.221660800e+03	3.717598669e+03
1.219340800e+03	3.764981844e+03
1.217027200e+03	3.812835731e+03
1.214720000e+03	3.861156453e+03
1.212419200e+03	3.909905464e+03
1.210124800e+03	3.959131781e+03
1.207836800e+03	4.005996119e+03
1.205555200e+03	4.053116411e+03
1.203280000e+03	4.100656441e+03
1.201011200e+03	4.148617996e+03
1.198748800e+03	4.197002842e+03
1.196492800e+03	4.245812723e+03
1.194243200e+03	4.295049361e+03
1.192000000e+03	4.344714456e+03
1.189763200e+03	4.394809685e+03
1.187532800e+03	4.445336703e+03
1.185308800e+03	4.496297141e+03
1.183091200e+03	4.546868855e+03
1.180880000e+03	4.597726599e+03
1.178675200e+03	4.647879075e+03
1.176476800e+03	4.697677954e+03
1.174284800e+03	4.747863087e+03
1.172099200e+03	4.798435469e+03
1.169920000e+03	4.849396070e+03
1.167747200e+03	4.900745834e+03
1.165580800e+03	4.952485678e+03
1.163420800e+03	5.004616494e+03
1.161267200e+03	5.057139146e+03
1.159120000e+03	5.110054468e+03
1.156979200e+03	5.163363270e+03
1.154844800e+03	5.216802001e+03
1.152716800e+03	5.267236789e+03
1.150595200e+03	5.318005283e+03
1.148480000e+03	5.368390999e+03
1.146371200e+03	5.418817044e+03
1.144268800e+03	5.469561552e+03
1.142172800e+03	5.520624611e+03
1.140083200e+03	5.572006284e+03
1.138000000e+03	5.623706607e+03
1.135923200e+03	5.675725589e+03
1.133852800e+03	5.728063213e+03
1.131788800e+03	5.780719432e+03
1.129731200e+03	5.833348365e+03
1.127680000e+03	5.883976090e+03
1.125635200e+03	5.934883191e+03
1.123596800e+03	5.982777055e+03
1.121564800e+03	6.029408204e+03
1.119539200e+03	6.076254218e+03
1.117520000e+03	6.123314468e+03
1.115507200e+03	6.170588302e+03
1.113500800e+03	6.218075048e+03
1.111500800e+03	6.265774013e+03
1.109507200e+03	6.313684484e+03
1.107520000e+03	6.361805726e+03
1.105539200e+03	6.410136982e+03
1.103564800e+03	6.458299434e+03
1.101596800e+03	6.506523253e+03
1.099635200e+03	6.553364809e+03
1.097680000e+03	6.593434207e+03
1.095731200e+03	6.633616240e+03
1.093788800e+03	6.673909984e+03
1.091852800e+03	6.714314507e+03
1.089923200e+03	6.754828860e+03
1.088000000e+03	6.795452086e+03
1.086083200e+03	6.836183212e+03
1.084172800e+03	6.877021256e+03
1.082268800e+03	6.917965222e+03
1.080371200e+03	6.959014101e+03
1.078480000e+03	7.000166873e+03
1.076595200e+03	7.041422506e+03
1.074716800e+03	7.081022847e+03
1.072844800e+03	7.110799038e+03
1.070979200e+03	7.140597999e+03
1.069120000e+03	7.169650857e+03
1.067267200e+03	7.197866189e+03
1.065420800e+03	7.226094522e+03
1.063580800e+03	7.254335140e+03
1.061747200e+03	7.282587321e+03
1.059920000e+03	7.310850345e+03
1.058099200e+03	7.339123483e+03
1.056284800e+03	7.367406007e+03
1.054476800e+03	7.395697184e+03
1.052675200e+03	7.423996278e+03
1.050880000e+03	7.452302549e+03
1.049091200e+03	7.473833875e+03
1.047308800e+03	7.488794063e+03
1.045532800e+03	7.503730318e+03
1.043763200e+03	7.516687764e+03
1.042000000e+03	7.528780332e+03
1.040243200e+03	7.540848355e+03
1.038492800e+03	7.552891652e+03
1.036748800e+03	7.564910045e+03
1.035011200e+03	7.576903352e+03
1.033280000e+03	7.588871394e+03
1.031555200e+03	7.600813991e+03
1.029836800e+03	7.612730964e+03
1.028124800e+03	7.624622133e+03
1.026419200e+03	7.636487319e+03
1.024720000e+03	7.645314584e+03
1.023027200e+03	7.638911544e+03
1.021340800e+03	7.632538043e+03
1.019660800e+03	7.625771682e+03
1.017987200e+03	7.617375695e+03
1.016320000e+03	7.609021005e+03
1.014659200e+03	7.600707498e+03
1.013004800e+03	7.592435058e+03
1.011356800e+03	7.584203572e+03
1.009715200e+03	7.576012924e+03
1.008080000e+03	7.567863003e+03
1.006451200e+03	7.559753696e+03
1.004828800e+03	7.551499973e+03
1.003212800e+03	7.541728347e+03
1.001603200e+03	7.532007989e+03
1.000000000e+03	7.522338735e+03
9.984032000e+02	7.495804594e+03
9.968128000e+02	7.469469837e+03
9.952288000e+02	7.443333018e+03
9.936512000e+02	7.417392707e+03
9.920800000e+02	7.391647484e+03
9.905152000e+02	7.366095944e+03
9.889568000e+02	7.340736696e+03
9.874048000e+02	7.315568360e+03
9.858592000e+02	7.290589571e+03
9.843200000e+02	7.265798974e+03
9.827872000e+02	7.241195228e+03
9.812608000e+02	7.216777006e+03
9.797408000e+02	7.191131432e+03
9.782272000e+02	7.158875314e+03
9.767200000e+02	7.126899355e+03
9.752192000e+02	7.095201092e+03
9.737248000e+02	7.054050165e+03
9.722368000e+02	7.011658546e+03
9.707552000e+02	6.969702373e+03
9.692800000e+02	6.928176869e+03
9.678112000e+02	6.887077323e+03
9.663488000e+02	6.846399083e+03
9.648928000e+02	6.806137558e+03
9.634432000e+02	6.766288214e+03
9.620000000e+02	6.726846580e+03
9.605632000e+02	6.687808239e+03
9.591328000e+02	6.649168832e+03
9.577088000e+02	6.610924057e+03
9.562912000e+02	6.573069666e+03
9.548800000e+02	6.534509475e+03
9.534752000e+02	6.484731959e+03
9.520768000e+02	6.435557824e+03
9.506848000e+02	6.386979081e+03
9.492992000e+02	6.337964172e+03
9.479200000e+02	6.288561277e+03
9.465472000e+02	6.239770041e+03
9.451808000e+02	6.191582190e+03
9.438208000e+02	6.143989577e+03
9.424672000e+02	6.096984183e+03
9.411200000e+02	6.050558117e+03
9.397792000e+02	6.004703606e+03
9.384448000e+02	5.959413002e+03
9.371168000e+02	5.914678776e+03
9.357952000e+02	5.870493513e+03
9.344800000e+02	5.824936280e+03
9.331712000e+02	5.777063242e+03
9.318688000e+02	5.729814877e+03
9.305728000e+02	5.683182279e+03
9.292832000e+02	5.633746545e+03
9.280000000e+02	5.582296367e+03
9.267232000e+02	5.531569165e+03
9.254528000e+02	5.481553748e+03
9.241888000e+02	5.432239123e+03
9.229312000e+02	5.383614492e+03
9.216800000e+02	5.335669250e+03
9.204352000e+02	5.288392977e+03
9.191968000e+02	5.241775439e+03
9.179648000e+02	5.195806581e+03
9.167392000e+02	5.150476526e+03
9.155200000e+02	5.105775571e+03
9.143072000e+02	5.061369633e+03
9.131008000e+02	5.017340984e+03
9.119008000e+02	4.973925876e+03
9.107072000e+02	4.931114993e+03
9.095200000e+02	4.887365068e+03
9.083392000e+02	4.842008649e+03
9.071648000e+02	4.797315579e+03
9.059968000e+02	4.753275237e+03
9.048352000e+02	4.709877202e+03
9.036800000e+02	4.667111242e+03
9.025312000e+02	4.624967316e+03
9.013888000e+02	4.583435565e+03
9.002528000e+02	4.542506315e+03
8.991232000e+02	4.502170065e+03
8.980000000e+02	4.462417493e+03
8.968832000e+02	4.423239444e+03
8.957728000e+02	4.384626931e+03
8.946688000e+02	4.346571133e+03
8.935712000e+02	4.309063387e+03
8.924800000e+02	4.272095190e+03
8.913952000e+02	4.235658192e+03
8.903168000e+02	4.199744196e+03
8.892448000e+02	4.165919847e+03
8.881792000e+02	4.133218967e+03
8.871200000e+02	4.100968874e+03
8.860672000e+02	4.069163011e+03
8.850208000e+02	4.037794931e+03
8.839808000e+02	4.006979584e+03
8.829472000e+02	3.976589323e+03
8.819200000e+02	3.946615594e+03
8.808992000e+02	3.917052442e+03
8.798848000e+02	3.887894014e+03
8.788768000e+02	3.859134559e+03
8.778752000e+02	3.830768425e+03
8.768800000e+02	3.802790054e+03
8.758912000e+02	3.775193988e+03
8.749088000e+02	3.747974860e+03
8.739328000e+02	3.721127393e+03
8.729632000e+02	3.694646405e+03
8.720000000e+02	3.668526799e+03
8.710432000e+02	3.642763567e+03
8.700928000e+02	3.617351784e+03
8.691488000e+02	3.598583619e+03
8.682112000e+02	3.580718092e+03
8.672800000e+02	3.563062303e+03
8.663552000e+02	3.545614023e+03
8.654368000e+02	3.528371053e+03
8.645248000e+02	3.511764267e+03
8.636192000e+02	3.495744819e+03
8.627200000e+02	3.479910885e+03
8.618272000e+02	3.464260605e+03
8.609408000e+02	3.448792143e+03
8.600608000e+02	3.433503691e+03
8.591872000e+02	3.418393464e+03
8.583200000e+02	3.403459703e+03
8.574592000e+02	3.388700676e+03
8.566048000e+02	3.374114672e+03
8.557568000e+02	3.359700006e+03
8.549152000e+02	3.345455016e+03
8.540800000e+02	3.331378065e+03
8.532512000e+02	3.317467538e+03
8.524288000e+02	3.303721842e+03
8.516128000e+02	3.290139409e+03
8.508032000e+02	3.276718691e+03
8.500000000e+02	3.263458162e+03
8.492032000e+02	3.256747506e+03
8.484128000e+02	3.250104384e+03
8.476288000e+02	3.243528440e+03
8.468512000e+02	3.237019319e+03
8.460800000e+02	3.230576673e+03
8.453152000e+02	3.224200156e+03
8.445568000e+02	3.218043577e+03
8.438048000e+02	3.212059062e+03
8.430592000e+02	3.206136467e+03
8.423200000e+02	3.200275490e+03
8.415872000e+02	3.194475832e+03
8.408608000e+02	3.188737200e+03
8.401408000e+02	3.183059302e+03
8.394272000e+02	3.177441850e+03
8.387200000e+02	3.171884559e+03
8.380192000e+02	3.166387148e+03
8.373248000e+02	3.160949340e+03
8.366368000e+02	3.155570860e+03
8.359552000e+02	3.150251437e+03
8.352800000e+02	3.144990803e+03
8.346112000e+02	3.140150314e+03
8.339488000e+02	3.135621055e+03
8.332928000e+02	3.131141997e+03
8.326432000e+02	3.126712940e+03
8.320000000e+02	3.122333693e+03
8.313632000e+02	3.118004063e+03
8.307328000e+02	3.113723860e+03
8.301088000e+02	3.109492897e+03
8.294912000e+02	3.107923085e+03
8.288800000e+02	3.106923099e+03
8.282752000e+02	3.105933901e+03
8.276768000e+02	3.104955480e+03
8.270848000e+02	3.103987827e+03
8.264992000e+02	3.103030932e+03
8.259200000e+02	3.102084785e+03
8.253472000e+02	3.101149376e+03
8.247808000e+02	3.100224696e+03
8.242208000e+02	3.099310736e+03
8.236672000e+02	3.098407486e+03
8.231200000e+02	3.097514936e+03
8.225792000e+02	3.096633079e+03
8.220448000e+02	3.095761904e+03
8.215168000e+02	3.094901403e+03
8.209952000e+02	3.094051567e+03
8.204800000e+02	3.093212388e+03
8.199712000e+02	3.092383857e+03
8.194688000e+02	3.091565965e+03
8.189728000e+02	3.090758705e+03
8.184832000e+02	3.089962067e+03
8.180000000e+02	3.089176044e+03
8.175232000e+02	3.088400629e+03
8.170528000e+02	3.087635812e+03
8.165888000e+02	3.086881586e+03
8.161312000e+02	3.086137945e+03
8.156800000e+02	3.085404879e+03
8.152352000e+02	3.084682381e+03
8.147968000e+02	3.084017603e+03
8.143648000e+02	3.083416445e+03
8.139392000e+02	3.082824309e+03
8.135200000e+02	3.082241188e+03
8.131072000e+02	3.081667078e+03
8.127008000e+02	3.081101972e+03
8.123008000e+02	3.080545868e+03
8.119072000e+02	3.079998759e+03
8.115200000e+02	3.079460640e+03
8.111392000e+02	3.078931509e+03
8.107648000e+02	3.078411358e+03
8.103968000e+02	3.077900185e+03
8.100352000e+02	3.077397984e+03
8.096800000e+02	3.076988305e+03
8.093312000e+02	3.076595085e+03
8.089888000e+02	3.076209128e+03
8.086528000e+02	3.075830433e+03
8.083232000e+02	3.075458997e+03
8.080000000e+02	3.075094816e+03
8.076832000e+02	3.074737888e+03
8.073728000e+02	3.074388212e+03
8.070688000e+02	3.074045784e+03
8.067712000e+02	3.073710601e+03
8.064800000e+02	3.073382663e+03
8.061952000e+02	3.073061966e+03
8.059168000e+02	3.072748507e+03
8.056448000e+02	3.072442286e+03
8.053792000e+02	3.072143299e+03
8.051200000e+02	3.071851545e+03
8.048672000e+02	3.071567021e+03
8.046208000e+02	3.071289726e+03
8.043808000e+02	3.071019657e+03
8.041472000e+02	3.070756813e+03
8.039200000e+02	3.070501191e+03
8.036992000e+02	3.070252791e+03
8.034848000e+02	3.070011610e+03
8.032768000e+02	3.069777646e+03
8.030752000e+02	3.069550899e+03
8.028800000e+02	3.069331365e+03
8.026912000e+02	3.069119045e+03
8.025088000e+02	3.068913935e+03
8.023328000e+02	3.068716036e+03
8.021632000e+02	3.068525345e+03
8.020000000e+02	3.068341861e+03
8.018432000e+02	3.068165582e+03
8.016928000e+02	3.067996509e+03
8.015488000e+02	3.067834638e+03
8.014112000e+02	3.067679970e+03
8.012800000e+02	3.067532503e+03
8.011552000e+02	3.067392236e+03
8.010368000e+02	3.067259169e+03
8.009248000e+02	3.067133299e+03
8.008192000e+02	3.067014627e+03
8.007200000e+02	3.066903151e+03
8.006272000e+02	3.066798870e+03
8.005408000e+02	3.066701785e+03
8.004608000e+02	3.066611894e+03
8.003872000e+02	3.066529197e+03
8.003200000e+02	3.066453692e+03
8.002592000e+02	3.066385380e+03
8.002048000e+02	3.066324260e+03
8.001568000e+02	3.066270332e+03
8.001152000e+02	3.066223595e+03
8.000800000e+02	3.066184049e+03
8.000512000e+02	3.066151693e+03
8.000288000e+02	3.066126528e+03
8.000128000e+02	3.066108553e+03
8.000032000e+02	3.066097768e+03
8.000000000e+02	3.066094173e+03
